0.06726189834064338
0.19727060681665953
0.3185673512871207
0.4309627620169467
0.5359786708391197
0.6349909540493041
0.727039536296188
0.8117264698324789
0.8900012746395995
0.962067172761172
1.027016756247028
1.0853204257734723
1.1388526870954983
1.1878250166850108
1.231035404949203
1.268599310178096
1.3030595199603399
1.335845519377594
1.3666303837855993
1.3960057126313101
1.4231918158276107
1.4493229195725879
1.475020733434517
1.4996798494149775
1.5225859240534436
1.5429987722471308
1.5610117216559494
1.5770169216824865
1.5912395796719985
1.602557011317735
1.6103697150338971
1.615166449661081
1.6153315157218684
1.6092865627338508
1.5974273681718207
1.580216688702791
1.557732421583433
1.5301744642988788
1.4968894444757506
1.4568338179294733
1.4109815928247842
1.359929243786536
1.3039170054266536
1.2422918553665114
1.175014714562293
1.10351600438637
1.0294115162760609
0.9532587985112705
0.8754756969137947
0.7968685016537346
0.7175642950759958
0.6378704283848862
0.5584858684003808
0.47995449353409975
0.4024125664241882
0.3265432412573127
0.25302044301492355
0.1823958879722771
0.11506774448931448
0.05099122771381581
-0.011484755463658618
-0.0694509943647974
-0.1198164815855313
-0.1656155669968647
-0.20770187611030688
-0.24692487803663793
-0.2815607359822743
-0.311343114281169
-0.3373379241748572
-0.36122663948042333
-0.3799440184326871
-0.3959091914159188
-0.41471278597638156
-0.4313287458304322
-0.44509862959423147
-0.45701199268924697
-0.4670733599653949
-0.4751062855533728
-0.48091369683543117
-0.48498656233476917
-0.4864516263097423
-0.48460794091343656
-0.48022046174480953
-0.4729731663440239
-0.46387958333277124
-0.45478963700896147
-0.44476194030592703
-0.43005058105664185
-0.4146290377945164
-0.4013750394173137
-0.38703235003906494
-0.3736058094821928
-0.36260343370547443
-0.3523093847097778
-0.3419288021292263
-0.33265003445125557
-0.3243953759034597
-0.31619605873264534
-0.3073282024722089
-0.2975603859571188
-0.2870498977210624
-0.2766534188378871
-0.26535218258102666
-0.2521176960314644
-0.23788701147342697
-0.22086436838825746
-0.20368692662473814
-0.1871574815476994
-0.17094917890368622
-0.156391064755195
-0.1420478877236607
-0.12835695410462247
-0.11728954916688487
-0.10682025384797225
-0.09623583200972731
-0.08802904293317791
-0.08166933438169993
-0.07579752717281553
-0.0713680090240736
-0.07046334506152348
-0.06970913462733531
-0.06641980355282323
-0.06232177893933917
-0.057848129350867514
-0.0520301236574232
-0.04522680312454677
-0.03788976581851819
-0.03007259902628716
-0.018925217527853033
-0.005426606864204375
0.0049212617776470124
0.012466690878694342
0.020558196341750226
0.02813480752259115
0.034499303900324386
0.0377355508581842
0.04174512286519122
0.04509289637355722
0.045614648324976415
0.04537841273970661
0.04409623629175573
0.04574178662796405
0.04875544323482879
0.049808578394047565
0.04842239988237504
0.05051590144394774
0.05520138706091009
0.0574711470820124
0.059363194757735854
0.06104392455572605
0.06263299557750394
0.06476387162587668
0.06639295473141034
0.0674717412038688
0.068067870026948
0.06906469640039649
0.06797958411904949
0.06557495697575226
0.06364943571202755
0.06184453140475803
0.05915361147466758
0.05619642852538147
0.05828043533511347
0.05951209484022374
0.057447251688509046
0.05694301163144112
0.05719887788081829
0.056791308931939
0.056989581408580625
0.05894668370812946
0.06113612815591646
0.06405830400408223
0.06464677858359717
0.06274445332915869
0.06204279858597482
0.06172661533661207
0.061364095494265164
0.05805731801692801
0.055752632142766476
0.05402356567668229
0.04997542273700653
0.04744417922222728
0.04586103513146769
0.04554478448910328
0.048986097948642185
0.054086000421475655
0.05685973307302729
0.060528881069452645
0.06629322710613032
0.07032551082226587
0.07435660806468175
0.07990031571740282
0.08443038911302432
0.08814440069039536
0.09044897622812524
0.09123737512629283
0.09130657114371334
0.09062578729187597
0.08957750132587532
0.0887823554696467
0.08826440916344105
0.08826867417682686
0.08898653028051849
0.09052124163578941
0.09289302987749432
0.09582086219877789
0.09915084201126916
0.10273729627251929
0.10633108544472739
0.10995864751321381
0.11342149817560009
0.11612449498463023
0.11780856246856342
0.11830774256801546
0.11724637772450952
0.11461100357999675
0.11061670935347896
0.10535777146179337
0.0995587924385869
0.09382736500586156
0.08851064850917209
0.08423107569770866
0.08108654138324956
0.0793517282143527
0.07950374745867476
0.08120396958006568
0.08412995553710502
0.08834741964022104
0.09339353074202451
0.09845925872611451
0.10278481742593078
0.10580765460401907
0.10722645279846765
0.10665125398696362
0.10394480204878445
0.09931914492538436
0.09268129972120127
0.08447055976622692
0.07562479786796314
0.0667661416599111
0.0584044401400389
0.05060782052573262
0.0438106600109984
0.038417996581740055
0.03443413027470725
0.03171024506335614
0.029916964226077834
0.028816715513007143
0.027737985574890982
0.026347738644175445
0.024482937163201803
0.022140650584332837
0.019468307263279798
0.015638037389735987
0.010359374666448387
0.0038101398090010508
-0.004248260877592655
-0.013365906324132704
-0.023042846779938758
-0.032696385365296204
-0.04137017432130517
-0.04883859888466212
-0.05526527694894076
-0.060844049074079656
-0.0656477707857312
-0.0696354759389198
-0.07277103746747447
-0.07494857146520213
-0.07618300386237416
-0.07701189187752684
-0.07771798535359563
-0.07841834708824418
-0.07966935134966915
-0.08217789939792419
-0.08600896737669313
-0.09099656085512073
-0.09705588516901126
-0.1032113789353755
-0.10880706958593751
-0.11378660067857667
-0.1176895927746001
-0.12023562095358106
-0.12153726817316701
-0.12148061510060489
-0.12048341719414246
-0.11853144700302518
-0.11576289463014694
-0.11283070683185487
-0.11001368981019585
-0.10783374601355104
-0.10636991933589351
-0.10513634537039641
-0.10430854645225307
-0.10438500548108522
-0.10523599498223418
-0.10696068341063417
-0.10968689021639154
-0.11301093730664741
-0.11662643413316856
-0.12024482409597953
-0.12355792382792201
-0.1262400039652939
-0.12791259111699715
-0.12859519704269562
-0.12849499853162763
-0.12762278300743418
-0.1261025040535394
-0.1245732556436113
-0.12311437943284462
-0.12124214450199558
-0.11939634105240655
-0.11825030033216444
-0.11795068261304403
-0.11822355490741504
-0.11854961681224577
-0.11959433378699288
-0.12186894917217601
-0.12473395017886788
-0.12781031364940593
-0.13070430396900912
-0.13330711900210748
-0.13540581554650613
-0.13657865963615407
-0.1369903104099292
-0.13668597127154813
-0.1358961584673408
-0.13483873490913859
-0.13349584150902716
-0.13229795555226237
-0.13101646539888126
-0.12958573995856346
-0.1288002306554607
-0.12832525573696374
-0.12773402947144188
-0.12703533327808078
-0.12642373388115383
-0.12570966777582263
-0.1241945838706163
-0.12185723908754903
-0.11894046212180201
-0.11515311450647721
-0.11022429834741009
-0.10431212678643773
-0.09760510344234882
-0.0904313364479232
-0.08272825605035927
-0.07469904159017367
-0.06660983222214166
-0.058227090581207744
-0.04977878171570445
-0.04155357204711693
-0.03374749213754105
-0.02695264980826001
-0.021536156261390216
-0.01739236622750677
-0.014269608876930615
-0.012040225415863609
-0.010693378599718459
-0.009993143636716731
-0.009269687511831243
-0.007968466576001795
-0.006016816916235346
-0.003459977026448971
-0.00011895185828864063
0.004060487674621312
0.008978049557899666
0.014760648507763985
0.021338970050927532
0.028199210593033604
0.035267293232508205
0.04254746318878645
0.0492618481806866
0.05464439945112404
0.058500406184052806
0.060874619578714054
0.062073734535510294
0.06216591606564545
0.06110674614191096
0.059304247407804406
0.05699490314484747
0.054551050550045166
0.052694747459040084
0.05187915025013566
0.05200598003796632
0.05312905069905437
0.054998417696775076
0.05726561781147531
0.05975108966814012
0.062062373010543445
0.06420344697941821
0.06610413213647282
0.06736439433894036
0.06783362937904314
0.06770750285109114
0.06679944242982744
0.06512250178353363
0.06276555125818889
0.059739593151346235
0.0565405108703608
0.05344845506608566
0.05046578080625272
0.04781759988724189
0.046346786474447635
0.046097424437507195
0.04684698797498742
0.048420846008915844
0.050094606910863634
0.05167136575778783
0.052854887870559794
0.053182107426698016
0.052481051678176405
0.05055597716680654
0.04726378496708032
0.042957652012244774
0.03771172780222752
0.031709948534199686
0.02557364030993365
0.019589034375899858
0.013764067599249627
0.008328949150168685
0.003535942989446983
-0.0004915098302216009
-0.0034536763871385323
-0.0055185755953729015
-0.007069777949540487
-0.007910919232424748
-0.008157258705991585
-0.008141953904449037
-0.00817861173210023
-0.008449972362458702
-0.009052561676938714
-0.010187679718316606
-0.011856819083730472
-0.014320264933443919
-0.017373732396410477
-0.02067488180515896
-0.024161940384617525
-0.027627556400991737
-0.03102588468468609
-0.034202459800228124
-0.0369384609258087
-0.038918059345268555
-0.0401072603537891
-0.04055081470797023
-0.0400324702030338
-0.038649533039432096
-0.036905088134869216
-0.035012184884743405
-0.03317131619770586
-0.031645012815558926
-0.030716106805400725
-0.030648480086833768
-0.031650259249608376
-0.03380221087760829
-0.036358425504804545
-0.03943573922177741
-0.043439991414657105
-0.048005581935650625
-0.05263876833621489
-0.056726892024559536
-0.06006821688458302
-0.0623266345711595
-0.0628548058645971
-0.061533437051328424
-0.05844182561545569
-0.05414314995260017
-0.04913253276537832
-0.04357935011562057
-0.037830226252324406
-0.03202521365259177
-0.026519205062075404
-0.021607406162824097
-0.017416518114221693
-0.014398272955797861
-0.012527080235466323
-0.011477996823395925
-0.011278342010167863
-0.01180252218033076
-0.012707304754038681
-0.013706482589509739
-0.014605423046137933
-0.014886820283930638
-0.014029462313938756
-0.012588834322998205
-0.010976639002195462
-0.009021947804465622
-0.006862850431816073
-0.004592406198790991
-0.0021867161523559803
0.0003762740405676285
0.0028936089193594833
0.004951617428184653
0.0063863695347362096
0.007082916378324158
0.0067866236000678
0.005893664383152371
0.004554568816926022
0.0028003677463823012
0.0009590118215231092
-0.0007728897175248578
-0.0021738203606116585
-0.0029623076892526523
-0.0028757897743243166
-0.002153847514332799
-0.0002420366645709826
0.0028560512955284334
0.006277983375269101
0.010068606044393323
0.014268974466145931
0.01850723951318184
0.022099281418038734
0.02496255986273027
0.027096061293599476
0.028352119530001378
0.02863178823022773
0.02762173945017285
0.025440667471006775
0.02253821693273756
0.019673524662390002
0.01715013303926577
0.015326512244360567
0.014686088719364679
0.015567826132909371
0.01776482929665571
0.021190641828096206
0.025946559874235615
0.03137984069645916
0.036987180552201425
0.04255586270294352
0.04799785094991557
0.052784408996827625
0.056272092579452246
0.058120812899386545
0.05823912488675148
0.056918147513982234
0.05450979650811699
0.051124450213708844
0.04731499418333296
0.04334142344563137
0.0393367536089437
0.03564919819065915
0.03234442440235914
0.029334189421675566
0.026906805904305234
0.025145332258005915
0.023902639492083128
0.023522705824355748
0.023916845252694323
0.025259970430552565
0.027415991807110324
0.029622338625612817
0.03153478857489227
0.032905343893141516
0.03372588917217881
0.03406478731686771
0.03354118960146443
0.03209755042860217
0.029905686499826965
0.02724069965051403
0.024622702631477963
0.022428371790347873
0.021084618212208313
0.020766681900953106
0.021487369642037603
0.022809297489534017
0.023613163306388976
0.025230311882628823
0.028350588675760006
0.03157135559701998
0.034988849651815986
0.03809764058061986
0.0404611864116092
0.04211811500220715
0.04295791944512313
0.04284197035405085
0.041940448965231525
0.040638635663274386
0.038518232085527446
0.03556080379086421
0.032309478364792726
0.029089118421962254
0.025981487100020746
0.02321185097253136
0.02106518383584321
0.019546888771747074
0.018660235616347984
0.01836927918992791
0.018638554534278123
0.019209935201262504
0.019988966516129504
0.020886353490402493
0.021445878986791345
0.021314501319569412
0.020497497191419897
0.01889018299101424
0.016768546941737024
0.01439323580447939
0.011860931946686373
0.009225674488108904
0.006389695600175549
0.004005808980617961
0.002499737696096946
0.0019339207968766398
0.0024759002067979985
0.004428637398280089
0.007998177226888184
0.012852533723455933
0.018564655595341553
0.02465664766936554
0.030827455445692105
0.036980155546066526
0.04235414005220384
0.04664661235494785
0.04979954669304738
0.051687319998175746
0.05264202504072277
0.052606172664506914
0.051751835017376985
0.0504661626580961
0.049039547725927043
0.047745091223325126
0.04650405125132613
0.04580036655229701
0.04582652651750599
0.04646357638444139
0.04785847303174612
0.05003543531714437
0.05286615151747939
0.056079442530640636
0.059270746384601045
0.06206021722315706
0.06431552393286938
0.06624875425689064
0.06791118698329571
0.06909133689120485
0.06977800261346669
0.06988767735672244
0.06952961139462423
0.06854732375941103
0.0667584587440089
0.06466373134001317
0.06251100805905005
0.0603472056621827
0.0584396279920945
0.057298971110517044
0.057253799275909664
0.058125878926359634
0.059782406643734784
0.06198481251072163
0.06420987828039912
0.06596620426033602
0.06705409777238767
0.06706473965035663
0.06524529205480838
0.06085684483017173
0.054663783222177686
0.04753790313797976
0.03948210115548122
0.030948195586988733
0.02288267794177755
0.01583819681526786
0.009735554446846678
0.004832496657640545
0.0015164285026458557
-0.00033703945632283794
-0.0012209394344381286
-0.0011546145061789859
-0.0003077665409036423
0.0009347887281839912
0.0021733468596011607
0.0031441790065405706
0.003674800667461481
0.0033068828966375807
0.001910224804780744
-0.00044847508053651175
-0.0039642373857791124
-0.008779674477467622
-0.01446694138029711
-0.020770571490227957
-0.02726288429178436
-0.033392909849059946
-0.038904709686842204
-0.04370852595508873
-0.047684900597146376
-0.05091004242284576
-0.05353207773964157
-0.055059397453607994
-0.05536831411630112
-0.054792603928526945
-0.0536482432838898
-0.051935967287580875
-0.04995571569855392
-0.048213134294849094
-0.0468103499657352
-0.046139909738443605
-0.04623351592235381
-0.04693273357722874
-0.0478266270973392
-0.04830552910306202
-0.048132936614264404
-0.047200236059648626
-0.045705233722703076
-0.04376089162687524
-0.041474578183936614
-0.038836493678137754
-0.03591285021933721
-0.03246902591025186
-0.02850940377739379
-0.024337199581473554
-0.02023776217708144
-0.016330033558620227
-0.012873966825628816
-0.010223984641786213
-0.008115359812606873
-0.006297942770894391
-0.0047220032948709495
-0.0036005649809383172
-0.002834746453265549
-0.002293468591887962
-0.002076209539829052
-0.0017546219810891245
-0.0010383676609957981
0.00012085187492864857
0.001729917806698053
0.003756798149582033
0.006207415740386593
0.008751294587838243
0.011152234090216692
0.013412051748028855
0.015272442813210656
0.0165663944516819
0.017027090233551853
0.01659237693751845
0.015392471323670026
0.013365839975136753
0.010903501145683135
0.008373896290529322
0.006048803325311047
0.0048524943598775155
0.005166047141905772
0.006933756677645703
0.010917590055558327
0.017603505457555742
0.02762610246262693
0.04149732569677369
0.059166040846198475
0.08064773211700281
0.10557396968705134
0.13351448121041148
0.16517263169288607
0.19859408543953133
0.23275698910520415
0.2684853440112983
0.30424189724558737
0.3389922174329778
0.37191660716159797
0.4021761566407163
0.42936275141261404
0.45328798053460173
0.47385868217473426
0.4910714068282844
0.5048581508669158
0.5153136998014567
0.522685436199649
0.5267680925540515
0.52711793583352
0.5234777990406768
0.5159896649112855
0.5045002923177981
0.4886912535444611
0.4682759264062384
0.44296117658662804
0.41322984595631196
0.37917600901444753
0.34075160758372847
0.29840769040572057
0.25306270389860197
0.20595976621096124
0.15804807562977835
0.10996089388644113
0.06247940903441537
0.01722832364515335
-0.026430806163684345
-0.06921369658671102
-0.10967442995374264
-0.14757793720445553
-0.18274801772417132
-0.215064257903209
-0.24453338206721634
-0.27128148570508726
-0.29562080403624946
-0.317516639441203
-0.3370178284442914
-0.35402829688295606
-0.3686881899955093
-0.38135907545934866
-0.3922373886625383
-0.4009547053533281
-0.407468875161766
-0.4120814626739586
-0.4147834961253746
-0.41557203548417904
-0.414338206200902
-0.411208788557395
-0.40645708872319447
-0.40012120142551694
-0.3924646623076909
-0.3838503464071073
-0.3741753372213388
-0.3635320467565211
-0.35115438082434913
-0.3388204676066668
-0.32805114549016795
-0.3175915138186822
-0.3079735627066083
-0.29939682872119
-0.29159927140883124
-0.28459299810552097
-0.27801508288269683
-0.27148628345645376
-0.2643527075914501
-0.2561880577482739
-0.24681818826937332
-0.2361574303209517
-0.22424064866136845
-0.21125299891012134
-0.19729702337109686
-0.18239739089197712
-0.16743563089066937
-0.15283050680200155
-0.13849060889301967
-0.1245897529139462
-0.11136430702663712
-0.0989970942950373
-0.08754572596714424
-0.07717328043740017
-0.06788099151897202
-0.05951810730482332
-0.05197759647779751
-0.04511938660918037
-0.038772779735633034
-0.032441189640660104
-0.025807057225329846
-0.018982269367591523
-0.011774823173541643
-0.004340335896172567
0.0030627991917876324
0.010564048439274734
0.018098695277076755
0.025717478052493636
0.03331899218934262
0.04043603825479462
0.046631277639697655
0.05153387084903942
0.05505970412127972
0.05731975380830413
0.058235855696395666
0.058073288443856605
0.057530690575834945
0.05711640885793978
0.05697262289784956
0.05756689306368604
0.05911295461422893
0.06162277392919306
0.06525363084141157
0.06970357402553706
0.07483551030552335
0.08059314743855346
0.08647539863461236
0.09182534243511489
0.0962508309964694
0.09938626700356518
0.10070602345461095
0.10009374015451171
0.09789212283487946
0.09412993740378316
0.08943391512539994
0.08439527678637482
0.0790493659940542
0.07350465950920146
0.06775198738159785
0.06178333550405084
0.05577781007294666
0.050052518371878865
0.04509045132427163
0.040970952678822545
0.03754289797824216
0.03522042250332673
0.03420323927062065
0.03437752489894777
0.035558566772142405
0.037384006011240326
0.03943731022206748
0.04121506814030808
0.04258015758598896
0.04392583027604839
0.045175001368028544
0.04592073902675406
0.04619158028347285
0.04609009133067904
0.04563925240331239
0.045010455837957625
0.04436516065084578
0.0437806295614907
0.04355245690944487
0.04380839167571761
0.04418337740676394
0.044594678132557894
0.04496449534892945
0.045182688115344774
0.045629893409528444
0.04643968140837601
0.04740162052043591
0.04857808215881777
0.04969219970898421
0.05052135947535631
0.05134096227557024
0.052074832732057555
0.05239126689133522
0.052500805710486154
0.05267615903955025
0.05283840812997001
0.05328550473897822
0.05414761691106679
0.05539697959714478
0.05696920554448176
0.059026118453407175
0.061755491781484345
0.06477369031248909
0.06786843691934571
0.07076576559425406
0.07306016238959818
0.07418654343366987
0.07384082717451791
0.07226252156052607
0.06938245915143565
0.06554865076668888
0.06142545982746374
0.05756319114733742
0.054105842486943556
0.051001462371013356
0.04875828743947326
0.04755349220899831
0.047215652140926656
0.04780451419844205
0.04903870264576264
0.05072654016454567
0.052761132144131265
0.054892292855465805
0.05714522166322493
0.05924561374231674
0.060861912879719884
0.061721359228611855
0.06186760611407996
0.06160411090542549
0.060658979709167796
0.0585184274335398
0.055261445362079664
0.05122583305117069
0.04654502888376921
0.041197382615935946
0.03549929915110113
0.03015813469342675
0.025576699610758244
0.021945065019963864
0.01925298090801779
0.01774854115529289
0.017624109433327755
0.018572734477805386
0.020377493977944083
0.02253460742662248
0.024644386619149486
0.02640603999535325
0.027426497782342442
0.027413175549846458
0.026391905131228327
0.024464242709173002
0.02161655091861292
0.01828509326544161
0.01443450876687407
0.01003308161275164
0.005908264771096905
0.0027618894232627617
0.0005061623581983227
-0.0013159404759103127
-0.0028000167269817966
-0.0035903804746244966
-0.003578226253031558
-0.0031845161638867775
-0.0026568458336256456
-0.002042095731524668
-0.0017937656975446498
-0.002783097000034998
-0.005117841271064599
-0.008597702458590026
-0.013217314417209663
-0.018745151622387143
-0.024998392085486362
-0.03191487910137744
-0.03924832763510491
-0.04654304932401991
-0.05348284262564823
-0.05988340062443091
-0.06557319569878299
-0.07024438371254303
-0.07409443500832928
-0.07745995349457463
-0.08010038666680201
-0.08208954135636183
-0.08334978703915275
-0.08384751880531592
-0.08403699955387746
-0.08415968361293859
-0.08466571772012382
-0.0858651101057539
-0.087712165914281
-0.089752889289722
-0.09174640563208473
-0.09406189220114995
-0.09674748615500402
-0.0995125073548443
-0.1018977490661934
-0.10343587539504873
-0.10432290112784157
-0.10455875376090361
-0.10373600851231297
-0.10173552381932227
-0.09863481137046438
-0.09473303239803953
-0.09035062016037555
-0.08608748038679101
-0.08250661963501019
-0.07968834896805595
-0.0778175033038707
-0.07702773184074702
-0.0770322097188962
-0.07755931025374527
-0.07842686336595418
-0.079611632067528
-0.0809792775468261
-0.08206830084461939
-0.08263213737615026
-0.08255236247720289
-0.0814964014675859
-0.07926635560281992
-0.07586576816303735
-0.07167335079536907
-0.06730742731706502
-0.0632003310510109
-0.05964569981065897
-0.05688048940587809
-0.05501334267021296
-0.05395769187426777
-0.05329509338622153
-0.052891890707293485
-0.05284504159495518
-0.05313296525508414
-0.05362282774063387
-0.05418930992560465
-0.054863318859368015
-0.05492952194624652
-0.054238755401838035
-0.052950737314759855
-0.050696334321312445
-0.04728049102716346
-0.042597777362464534
-0.036999253492699294
-0.030742811304245
-0.023812099576181744
-0.016305306384829132
-0.008651111741925219
-0.0011036866391885974
0.00598698586780802
0.011847132577603295
0.015828069564001027
0.01777246563188127
0.018022054573047855
0.016865409028228917
0.01476356579468624
0.012152180813639675
0.009330217957778011
0.00646742040703846
0.003834911981978606
0.0016866337591204678
0.0004456739910593116
0.0003951270367631293
0.0011277758411261107
0.002444981543730129
0.004530555406271702
0.007071270875905006
0.009548467709105793
0.01184729764778955
0.014009232582629629
0.015924800713909934
0.017491908474327827
0.018429672131748794
0.01866214297786102
0.018380441897547943
0.017579507598728963
0.016442089767114677
0.015177970169571904
0.014021713123680841
0.013044470012731263
0.012200935369118995
0.011522585417637662
0.011075706448948203
0.010884678525064223
0.011083268656720574
0.011647164362871512
0.012552485947185305
0.013738626304125146
0.014924651105365665
0.015809543410927912
0.016595124927330326
0.017099180189683094
0.017039798589361208
0.0164886874131358
0.01536578648383815
0.013895174863142401
0.011953453643349626
0.009835322198465224
0.008004040004796736
0.0062985751121511085
0.004864966263772294
0.003727965363236066
0.002761154952815703
0.002403368198461389
0.0028789365376333254
0.003838093069274545
0.0049881988533175825
0.006425923210583065
0.007794790421812484
0.008685840432218081
0.00897682259672826
0.008331444390563846
0.007031832351154926
0.00556801343813608
0.004065803621578545
0.0026806645555795122
0.001483843596995063
0.0006161105790237764
0.0004691290361425321
0.0011482096589222196
0.0026382670915875567
0.004922807006190147
0.007760845051056869
0.011036099949668414
0.015047347259242658
0.019701019166210705
0.024349369645227166
0.028644556609708202
0.03203773423207176
0.03397888917830525
0.034290514561953686
0.0333314318267386
0.03166545908120545
0.029898490938814345
0.028004552223141972
0.026034019894959327
0.024406444736141973
0.02303119565217577
0.022640892279412454
0.023623063546333437
0.02563083792708705
0.028409941724907073
0.03186819114242361
0.03569385580611637
0.03974195610626964
0.04391291091350223
0.04788964035511778
0.05159815847795446
0.05482094834658233
0.05713192817697388
0.058208003014533785
0.05793532368133458
0.05617364844838753
0.05290716346160701
0.04816254106415088
0.04230389323951299
0.03571354453592292
0.02852940797969769
0.021329125759196384
0.014580781593123683
0.008648233126071408
0.004094037623418256
0.0012565025154580578
0.00026237937252220067
0.0008533798104671392
0.0025963922686237234
0.005230200114090672
0.008246530571843255
0.011055378418517697
0.01328929942012147
0.014418879145872948
0.014136146697739813
0.012676786047707278
0.010116687653205399
0.0068278965281219905
0.0033850924662030824
-0.00019245541276498301
-0.003774658232207087
-0.007053329154819918
-0.009702730510211408
-0.01186520936623442
-0.01360143166970322
-0.014485959371759394
-0.014307736571968488
-0.013541262434676835
-0.012410595882431097
-0.01079236641306644
-0.008646525914437167
-0.00604858855841546
-0.003703205214611635
-0.0017505287526247137
-0.0003582464313183903
0.00013176988215657381
-0.0004129166590236405
-0.002076499622918948
-0.00456280601514969
-0.007628551299501102
-0.01134123159598098
-0.015315944163543371
-0.019004477113385
-0.02215326345128532
-0.0243397255935532
-0.0255046209118059
-0.0258184639588952
-0.025332214714622672
-0.024021620018068998
-0.022089485515603788
-0.019765245143745627
-0.01752589404965857
-0.015819116782598494
-0.01498938339447703
-0.014985631113297745
-0.015534323228192912
-0.016600219920018908
-0.01803713681940694
-0.019929946767434162
-0.022096625200281245
-0.02406783440580028
-0.025924231392796676
-0.02777909012624219
-0.02936676258169621
-0.030438555725613867
-0.031246043200533632
-0.03206342955501819
-0.03240413403280598
-0.0320358096615896
-0.0312631369481676
-0.030038569381087427
-0.02843036229276452
-0.026838534495244898
-0.025713086387985154
-0.025549662297554593
-0.026178500933572935
-0.02740070894627397
-0.029585845203180375
-0.03270616033264871
-0.03610047071633775
-0.039184299372339526
-0.0417444986410368
-0.04373122234598924
-0.04517371295950029
-0.04624980294103748
-0.047164742363767165
-0.0479629270137748
-0.04890959676524986
-0.05006739026572819
-0.051010892098459895
-0.05171324958083015
-0.05229874817711527
-0.05295883995219182
-0.05372428670244464
-0.05454926845872894
-0.05557659837376529
-0.05712581788963009
-0.05912347432507707
-0.06105287507338007
-0.06309865222921737
-0.06509903136805899
-0.06645579799793322
-0.06675784857783473
-0.06603138532553297
-0.0641179546379961
-0.06098377347856594
-0.05712145540428307
-0.05280967386004738
-0.04838581575026614
-0.04401822071819425
-0.039678796798198884
-0.03556429726650731
-0.032268066162974465
-0.02993571530758614
-0.028329192319957272
-0.027520486372875158
-0.02727729032459432
-0.027231020214662754
-0.02748141583906892
-0.027935275514940905
-0.028355683401206366
-0.028259840109525702
-0.02760507509506696
-0.026315720281860966
-0.02402492144358208
-0.0211351021281017
-0.017579454401704525
-0.013111141080687103
-0.00813342721122022
-0.0030636686951565906
0.002077970711225896
0.007383956749551571
0.012382613046561922
0.016780697828803898
0.020639384321004504
0.023831654678160577
0.026612168194710697
0.02914684322506722
0.031257371856785614
0.03322395802687927
0.035347346368860486
0.03783509997322124
0.04084388512102019
0.04414730163757001
0.04801553065556986
0.05277507237927674
0.05798592448809743
0.06345681589624709
0.06915619406055379
0.0750165708299917
0.08097410840092809
0.08674536588185278
0.09210191172844838
0.0967188179070736
0.10036748487296938
0.10283602308590074
0.10422646207792764
0.10486092334004729
0.10485805753868509
0.1044055195251059
0.1034948080125754
0.10241687415246022
0.10144541934121305
0.10053954158777946
0.10006986925196787
0.10042039560392002
0.1014657287088299
0.10327213486623343
0.10560203828712368
0.10819363516836229
0.11132115736154902
0.11457094433349202
0.11733097771257987
0.11858151149952886
0.11796451212664032
0.1157815656174816
0.11202275676256776
0.1069065129731568
0.10000940788994492
0.09145976365900875
0.08175485085040009
0.07091852574719679
0.059311260462197576
0.047980619306207256
0.037946738862227075
0.02968023736542333
0.023245957007036876
0.01840190950884381
0.015065096856845615
0.01300444209302895
0.011776071519941492
0.01088636582880391
0.00990801573788716
0.008588815121429616
0.006544095702266731
0.0034519151958197353
-0.0006894241477584939
-0.005841302210785673
-0.01177853924288598
-0.01847343458080547
-0.025637383764803776
-0.03292361780471789
-0.04019215976272017
-0.046865184808263294
-0.052625003243889565
-0.05739912057845402
-0.06108508742853022
-0.06332940475234675
-0.06428788459644319
-0.06448255950067715
-0.0642198315731199
-0.06408636372364383
-0.06444668611428261
-0.06526967395443233
-0.0665991756072979
-0.06832610376495615
-0.0702724728988331
-0.07271694200746624
-0.07551053316004953
-0.07832633258495683
-0.0809316888136192
-0.08288551747262983
-0.08370107848283088
-0.08311057222909421
-0.08135018572305786
-0.07871947669952321
-0.07520462818810081
-0.07113002486548349
-0.06683909359831842
-0.062320133340554515
-0.05789763212434197
-0.05372721806008125
-0.04973109768887399
-0.04617053910654953
-0.04351285319452043
-0.04193386537819964
-0.04103755422328946
-0.04082209472470817
-0.041544235071188526
-0.043107564705163665
-0.045381930736403966
-0.048057058261968696
-0.050691619696933435
-0.052982904447036114
-0.05475924098944143
-0.05552607600361009
-0.05504510545471138
-0.05294731977808431
-0.04930006379846888
-0.04439424115946071
-0.038506641788669235
-0.032420840598714085
-0.02687323242878084
-0.02225617394253361
-0.018749429166619036
-0.01655582253252559
-0.01545282281517013
-0.015228328257770152
-0.015457425685396292
-0.015776995225944834
-0.015957392017925995
-0.015411340959748207
-0.013589439584395027
-0.010091034609502308
-0.004247081620182433
0.004117531538103
0.014862390533335802
0.028183625472154722
0.044369625390118815
0.06331095738053542
0.0844877206606377
0.10829813524926585
0.13455055801608595
0.16238837052049315
0.19144903153139517
0.2213885814921182
0.2520303071839398
0.28287142657368525
0.3128067830495739
0.34240086806034686
0.37173832558891756
0.39993211656623295
0.4270453962749794
0.45265694261026584
0.47644991777278
0.49787159556483274
0.5164097393035004
0.531442795563405
0.5423971495944189
0.5487086484739655
0.5494516203814052
0.544368026357835
0.5333066839537336
0.5161055825590241
0.492890627380037
0.4637229117128513
0.4289745147997638
0.3891596734118945
0.34507345231119113
0.2977351463649674
0.24814847596381798
0.19722524975227745
0.14597435967292127
0.0954929685223071
0.04654875494668502
-0.0003278077958227682
-0.04464450818365556
-0.08631850172312612
-0.12550279347646354
-0.16249702196334076
-0.19732843730080815
-0.22984282639234602
-0.26042285874287974
-0.28921022402323915
-0.3158222909808551
-0.33964557338208823
-0.36055840416652685
-0.37886411213593746
-0.3945202053957291
-0.4076431976979539
-0.4185357869133323
-0.42696779525069123
-0.4329161473532926
-0.43655231624255664
-0.4376347377065332
-0.4362043160546016
-0.432455486629078
-0.4265774922941318
-0.4191261803284475
-0.410256019139078
-0.4002277447264587
-0.3898847673619359
-0.3797595888482714
-0.37024002925108956
-0.3616885371797112
-0.35429388579563337
-0.34748597617122645
-0.3407277653001266
-0.33396122207954354
-0.32716907797544564
-0.3200375712334465
-0.31231023660894064
-0.304194376299683
-0.295476549295198
-0.2859580493334815
-0.2754173750914023
-0.26368665992227536
-0.25083489730898223
-0.23719051150499043
-0.222989784202419
-0.20827018399475605
-0.19332880250900322
-0.1786684783298651
-0.16479780380778417
-0.151968897677641
-0.14052713150632437
-0.1301976103998569
-0.120867807231904
-0.11250358665856812
-0.10451208570305819
-0.09685633221443436
-0.08957504788829992
-0.08229429360101606
-0.07496053463963145
-0.06744924597894296
-0.05964400050733566
-0.05214315498180806
-0.0446520752149495
-0.036931255629283205
-0.02924007598406765
-0.021301191708978123
-0.01315248907206204
-0.005276576544152908
0.002134546150613606
0.00893911601421414
0.014856940575379105
0.019887863991696293
0.02418309563437513
0.027589123635138497
0.029889938817106367
0.0314439036814351
0.032738496661053225
0.03382300895489457
0.035041950220273
0.03653243873968978
0.03842245756521191
0.040979853279167575
0.044491436967260475
0.04892618376577269
0.053768678170261416
0.058608146956464935
0.06309605945474346
0.06694333524259848
0.06958272992089841
0.07119187842319273
0.07190334641498737
0.07150937709959863
0.06896239278226306
0.06614941668550889
0.06424800716346844
0.06183158643223033
0.05912448718147496
0.05615219445181059
0.05327422303075728
0.05067909947860816
0.048840669009827725
0.04812732475145258
0.048807376108032735
0.05101717494514818
0.05428513439194883
0.05835137891006237
0.06229993453281034
0.06575461323142176
0.0689216044668152
0.07147452567009369
0.07329465803090389
0.07256131157113477
0.07125511075092873
0.07131203510315284
0.07090034403339723
0.0698637638294356
0.06831775434551836
0.06696744016228356
0.06595358222945431
0.0650353741698506
0.06435843291597781
0.06413321397051065
0.06437003946711009
0.06541209744619761
0.06776536307143718
0.0713431786366059
0.07561422304574718
0.08026357427316658
0.08514322427961037
0.089629892193134
0.09339982317167143
0.09633706075135612
0.09848391465644557
0.10003119498727873
0.10104819854033115
0.10156431933486605
0.1017946100652083
0.10223945826303779
0.10314492885959979
0.10436874602947736
0.10603680657913328
0.10793123870275237
0.11007001152993799
0.11254370247284631
0.11513878884639647
0.1179892323849593
0.12081087227337496
0.12307652979519136
0.12436715211030383
0.1247012477917588
0.12398733650975186
0.12217972362053403
0.119461853173339
0.11582259197108796
0.11170055899834999
0.10736022137931164
0.1028645451188308
0.0984963194578247
0.0946323424033505
0.09125297941313497
0.08867322254122921
0.08718657342342548
0.0865818793284866
0.08710475116478164
0.0887593815302871
0.09106282746112335
0.09355971264075245
0.09604506916331461
0.09795442867717195
0.09894538563626457
0.09892225073978062
0.09742605333870799
0.09443924647661796
0.09028445325677892
0.08560281151140928
0.08070028325174015
0.0759020224519342
0.07155027205335725
0.06729549488875368
0.06314399670579948
0.05947342626575293
0.05633941964445738
0.05382988454930196
0.052323198034145466
0.05139055079667175
0.0504416042007025
0.049554480576961935
0.04880236418932882
0.0478815682693077
0.04661900335391046
0.044555489784803434
0.04152254524930381
0.0374763445993847
0.03215542797758157
0.025838761104800892
0.019014383196983134
0.012365265436847968
0.0064206501675126565
0.001415089829598995
-0.0027686735067116025
-0.006131504534295562
-0.008602167316237391
-0.010525554335230836
-0.012264314743474988
-0.013750302656293137
-0.015106262400840287
-0.016485034248240188
-0.0178812697655409
-0.019624717699992994
-0.022098440678027215
-0.025660061900514272
-0.03034466963679862
-0.03595877571498736
-0.04239241890253484
-0.04931677165271475
-0.05616121892403646
-0.06272496832328614
-0.06878306672157361
-0.07390250648068507
-0.07823739682198395
-0.0815626845285127
-0.08352111952428729
-0.08448799093024485
-0.08459535110741882
-0.08404407780523543
-0.08306190103682606
-0.082049922488134
-0.08164530391328195
-0.08203541020258055
-0.08328229998903557
-0.08536738571074344
-0.08815919897361542
-0.09182987281087975
-0.09601769449276998
-0.10038150847546172
-0.10497246689623867
-0.1095031313030054
-0.11388976400795321
-0.11797973883441523
-0.12163058193854252
-0.12470976218020233
-0.12690845383660407
-0.12805078518037974
-0.12830945577137842
-0.1276631663085418
-0.12605731109219775
-0.12366658104201803
-0.12088048941488315
-0.11821475806028484
-0.11596732460081093
-0.11452837732632515
-0.11403879208003294
-0.11444212267073511
-0.11557119198950644
-0.11708091486885272
-0.11879495145672841
-0.12050991866750711
-0.12188601488982805
-0.12215868950805582
-0.12120838756032118
-0.11918676715374231
-0.11594170136284777
-0.11144545302132505
-0.10574997197511528
-0.09946552091879694
-0.09316686554345943
-0.08523604964921432
-0.07772982523809371
-0.07302482056671508
-0.06951295121801888
-0.06739200939412547
-0.06673213398544597
-0.06699975717544374
-0.06783997218416733
-0.06891785550579503
-0.06999261546576425
-0.07132177350385968
-0.07258839233534803
-0.07323461094164603
-0.07325917734937419
-0.07266270058058605
-0.07137313074512472
-0.06962241731493428
-0.06748088973139969
-0.06460648757419184
-0.06075450349464681
-0.056293186578259546
-0.05186771408884322
-0.04748860686015634
-0.043054004370331675
-0.03887763869539465
-0.03506737060489988
-0.03146302043083697
-0.02836000681117873
-0.02566228324961757
-0.023018075892308476
-0.020245702972337548
-0.01717492190533465
-0.013646720964341177
-0.009773508048589938
-0.005513022188001926
-0.0004918681166622835
0.004894364306650897
0.010645167147261082
0.01646139775715867
0.021950347522709523
0.02730221376178739
0.03198915202724
0.035480189956317285
0.037503358890093264
0.03825390589688052
0.037993238507120164
0.036932535452676704
0.03523520121025307
0.03305651050374542
0.030841276951505597
0.028932908500777545
0.027541398566800546
0.026825257864102024
0.02663377992254281
0.02712155470981544
0.028543408931696372
0.03050351872557034
0.03255423070867905
0.034498124527957794
0.03629892630617433
0.037811376276481456
0.039011501400571816
0.03995209090623569
0.040460248015245656
0.040746877091369274
0.040527035594271454
0.039460193941220315
0.03786144564025819
0.0359166031109318
0.03391275656479746
0.03185925440833248
0.02972781555860076
0.02786412983370646
0.026629255264560635
0.026100026012624733
0.02608615167685848
0.026556267651931392
0.02766554301061922
0.029260237227274992
0.030859763351458576
0.03242203247669627
0.03387042507284603
0.03483569852122831
0.03541892644022858
0.0353068939395402
0.03398425442040075
0.031342564524034264
0.02773020455302365
0.023737528728959914
0.019659591774700294
0.0156993085392979
0.012195700486532388
0.0094658188914441
0.0076935662928466625
0.006788472767668086
0.006737496628253389
0.00752593882634113
0.008765562374003041
0.010127695551905617
0.0114521528680087
0.012737427806118452
0.013982218142178843
0.015073810101577594
0.015795191090201013
0.01601804031230465
0.015697692511154722
0.014942573194538289
0.013483725104437808
0.011070600901399004
0.008140303400609089
0.004732760447487008
0.001072848797124229
-0.002255509921223836
-0.0048909405425790475
-0.006421673773695541
-0.006575811121760949
-0.00551120113177965
-0.003565584246651418
-0.0009842443837517478
0.0019634540502730807
0.005283925902535708
0.008684505899818708
0.01133209741354349
0.013227782318584597
0.014858366120403824
0.015826096016204293
0.015908169761326765
0.015865166567135075
0.014737569954479932
0.012334292907454997
0.009744435960796397
0.00691239929995624
0.004158690272296872
0.0016724533073068093
-0.00029505628470737066
-0.0012861690141413862
-0.001394741047780923
-0.0009718595235447686
9.768556813991025e-05
0.0016970128546205943
0.0033428186937820986
0.005064748227171803
0.006853219174535144
0.008141006480791697
0.008471292533445397
0.007827072085466374
0.006157971483438204
0.0036056409369176895
0.00064045591095932
-0.0028155196498953344
-0.006499242164433497
-0.009939829164269734
-0.01284460010683719
-0.014977450321885855
-0.016156081253255794
-0.016249245010628688
-0.015546034043876972
-0.013464555867949979
-0.010913226658150338
-0.00878365725864022
-0.006423820055313861
-0.004040533742409008
-0.0020884979631167755
-0.001142275534814538
-0.001440910244521379
-0.0026844720018706775
-0.0049606186845158745
-0.008348702067290867
-0.012362010503022644
-0.01683931539128107
-0.02140466664521201
-0.025481556597190452
-0.028976439366178525
-0.03184034278642939
-0.033768673772114025
-0.03507332435314772
-0.036234983053787084
-0.037147421298979286
-0.0377488016820602
-0.038056352784801004
-0.038087096877805066
-0.03744858747189282
-0.036220642674385586
-0.03496353979534132
-0.033719867053316185
-0.03256678126832274
-0.0320229059795238
-0.03208988121658238
-0.03265588624490584
-0.03283323181360276
-0.032979914110872116
-0.033692618607368094
-0.03407915254275
-0.03408387747735832
-0.03358123682052323
-0.03256638881531235
-0.03088744773746213
-0.0287013089643096
-0.02615676317755594
-0.023059741682851992
-0.019899230743297094
-0.01698579178687755
-0.01423832831260298
-0.012138244798502465
-0.010614918291187922
-0.009377159345116931
-0.008225107787854957
-0.006970836367442085
-0.005810186885085972
-0.005001203008648564
-0.004710789518752825
-0.0046477631427098015
-0.004426424648211275
-0.003982651865654552
-0.0032568686570928485
-0.0024171531941900998
-0.0015100613422782544
-0.0005051006452084922
0.0004400703603099354
0.0015867982555594629
0.002101056221094591
0.002763956552733232
0.004048169140654659
0.004721669845948115
0.0049685498746531165
0.005037311917497338
0.004789803119433028
0.004171602051997403
0.0030582630590444693
0.0011855358743482342
-0.0010229040960202385
-0.0028334139680505632
-0.004116235296530268
-0.00471382935609696
-0.004405819902934954
-0.0033226811659721467
-0.0015147571679426236
0.0006709760994496605
0.0032052208573266766
0.005873452230268354
0.008325023778991733
0.010008064324554797
0.010852967241730141
0.011243202299454642
0.011242557868076895
0.01113527165609584
0.01074213826772643
0.010081705161536246
0.009097752197269264
0.007738413943348739
0.006104872722081253
0.004218527513982884
0.002472222849112443
0.0011972598760132402
0.0007778026598270205
0.00134893493155476
0.00262543872014398
0.004635070488825568
0.0071413739102131266
0.009586054420129483
0.011779836836177643
0.013694509745041203
0.014746346501615756
0.014650085060749898
0.013736380648759372
0.011946062216698097
0.00933768825730577
0.006043002168578809
0.001890070552475559
-0.002647658442921877
-0.006901268432852228
-0.010950265969648376
-0.014125852550112075
-0.016062908696095002
-0.017054560512377998
-0.01678354785937969
-0.015290390019554762
-0.012765455302001627
-0.009390473579674069
-0.005264136210350476
-0.0006300871267349989
0.004058204933588452
0.008263141623054367
0.011369665024573483
0.013435791163384399
0.014593392348201596
0.01448528230072018
0.01300288877827694
0.010569034377109585
0.007732317005682186
0.0050462633486115654
0.002918629888242416
0.0015075080138906016
0.0010337031411214032
0.001664672032953951
0.0025500311684807375
0.0038577487502977903
0.006041963888606103
0.0087081729517264
0.011744945254623926
0.014934969435576047
0.018110938948788097
0.02111578283971765
0.023765290571903984
0.026110711337515365
0.02808943720342632
0.029606525775247673
0.030797359790605147
0.03190161587980435
0.03307020918193327
0.03463068562676047
0.03655468486067261
0.038368102571376225
0.04037009019221964
0.04258061161004982
0.044943410727319666
0.047628436641962785
0.05042233332378081
0.05334764783139073
0.056313568842091696
0.05897428562848464
0.06115474602375996
0.06254313436153186
0.06292331495781052
0.06224402687206902
0.060720591150925526
0.05881804782396155
0.056602163153908064
0.053763571570913354
0.050422773350442915
0.046582760437588536
0.042247775652884303
0.03749762904116603
0.03229685198035953
0.026948252330366407
0.02147619334143213
0.01608991995520251
0.01135770374275212
0.007625297607734269
0.004842491006246355
0.002624585494125864
0.0009435248066515939
-0.0005261978911834525
-0.0022396701040445777
-0.004400333398751219
-0.00749556729970785
-0.01116191627978469
-0.015540064171000054
-0.020983292643780002
-0.027150654732304963
-0.033831508139158625
-0.0404173462453986
-0.046671837476976105
-0.05241120535597872
-0.05768756541625557
-0.062476781897461364
-0.06623675507047593
-0.06890780279202882
-0.07073462501792357
-0.07161461259493601
-0.07186335353659175
-0.07192782647129345
-0.07170746800188321
-0.07174110095184758
-0.07245957969241053
-0.07393071588644813
-0.07614162336249934
-0.07900367263352784
-0.08205974193224967
-0.08469399644668488
-0.08688737544556971
-0.08836282877998239
-0.08908546440236194
-0.08909908252070459
-0.0880748260147298
-0.08563245237583343
-0.08164217566254703
-0.0761725745304143
-0.06962711701743338
-0.06257378539696003
-0.05517538480928555
-0.047660194871830236
-0.04050333634688433
-0.03426155572543843
-0.029120224265700018
-0.02517585312804002
-0.02259004072208777
-0.02113861399065023
-0.020682208464193566
-0.0210870955851319
-0.021927604172018916
-0.02280275175147234
-0.02333589127205285
-0.023397523746276974
-0.02286739518156579
-0.021894695092804492
-0.02036037569790064
-0.018191458420378212
-0.01532123368445941
-0.01172627279200926
-0.007721476775037858
-0.0035665316053361124
0.00023385365220536525
0.003578767319611001
0.006225945128956495
0.008284710318479147
0.009710604008317011
0.010426491066780716
0.010733998918167495
0.010582725587943667
0.010038264720189684
0.009535365424065752
0.009370557835968601
0.009449307886244623
0.00994255958595168
0.01100965005233897
0.012426535588416457
0.014205035195281143
0.016652828513917556
0.020205733991093697
0.02504662545502915
0.031269130423153234
0.03877119262090388
0.04689526568134521
0.05524530099685354
0.06411837824697197
0.07379197221721376
0.08452435086891684
0.09666661142485514
0.11024678946909576
0.12569631019689426
0.14322893024420505
0.16285338818962813
0.18453468226307612
0.20853165765632029
0.2348947261997511
0.2632180063998318
0.29344954398278345
0.3253862627061725
0.3587209587426401
0.3923054803584507
0.4247633050651919
0.45547466963660466
0.4837509844502873
0.5090642187343942
0.5313362514580758
0.5505768578405674
0.5663574918266409
0.5783228575071874
0.586336274968645
0.5898343103610356
0.5885240415707629
0.5823302124868959
0.5710845660142042
0.5546436015021401
0.5327386686160145
0.5057656148396801
0.47437113242974654
0.43895198506659355
0.40026433684380713
0.35839521624382115
0.3138819106795999
0.267422569701697
0.2192691601044605
0.17033280075748003
0.12132252749290189
0.07290438147568146
0.025664914673724268
-0.019253209787764097
-0.06256933827561283
-0.10470316452523651
-0.14415488021537787
-0.1802306168361477
-0.21258609961440406
-0.24135514203661873
-0.2667109020313573
-0.288751380165707
-0.3075781229512105
-0.3234817271196909
-0.33692948510145354
-0.3481068475520249
-0.35723168469198185
-0.3647748995199769
-0.3711088353157435
-0.37640060552866306
-0.380661322580215
-0.38427640555663156
-0.38760964062377923
-0.39059422873682625
-0.39290802570721217
-0.3943620509146615
-0.39470690331108754
-0.39378596880594174
-0.3913442037984245
-0.3871464725628964
-0.3811630210517728
-0.3732966302298978
-0.36387063723448587
-0.35345356995657595
-0.3422101331265171
-0.33011135532113334
-0.3178393313349746
-0.3058862786784349
-0.2944530879826019
-0.2834664989917062
-0.2730424454831092
-0.26351139579975374
-0.2546974857380693
-0.24650791373470393
-0.2384817171328688
-0.23074358981103335
-0.2236330143605481
-0.21642531794640363
-0.20881229007915553
-0.20095209404045936
-0.19239872659540697
-0.18258654334705748
-0.17150881607260043
-0.1593488716917154
-0.14650518684598507
-0.13320510945207803
-0.1199610626923661
-0.107626106880005
-0.0960314472457111
-0.08531406865098058
-0.07586050649593384
-0.06788130387767755
-0.061049107897377636
-0.05535083979569892
-0.05091977191250706
-0.047021762615798185
-0.04337510281678238
-0.03982613560474349
-0.035932668050897176
-0.03139204951483508
-0.026405560941851536
-0.021200700147943397
-0.015694109708579346
-0.009808378028417969
-0.003620708768179312
0.00257231791106019
0.008045750790623196
0.01249290502068369
0.016000754478378135
0.01869087210122826
0.020493758218554745
0.02142110020606347
0.0216723987295563
0.02151134299434774
0.021037927965912515
0.020346951920406163
0.01949085858381098
0.018258953286823074
0.01701249514611109
0.016090770832829532
0.01569985232698276
0.015882920696775688
0.016530068293935204
0.01772276452731092
0.019982376575585617
0.023460616399344755
0.02766401203421285
0.032313092495607494
0.03688372090062436
0.04088392518287495
0.044002159962970994
0.04602280146017319
0.047006933192546854
0.046940487366073425
0.04603648381377526
0.04486938979503782
0.04371900463943727
0.04262481517259731
0.04195856205615699
0.041770485424287115
0.042292402991858796
0.04355395587143861
0.04550645074425157
0.04806497553534288
0.05066442173936363
0.052922809175408245
0.0546684256113497
0.05574149464413401
0.056031109440259935
0.05588179930086526
0.055395144621419715
0.054927920867974434
0.05444308294537717
0.05375708425271812
0.053070164346127616
0.05253316095226446
0.05258490874810061
0.05348700116773035
0.05518503052053578
0.0575884171489066
0.0607960879671058
0.06474982299944247
0.06913239152967877
0.07386787721142736
0.07858635764001635
0.0827916918659898
0.08672629088982484
0.09024654727362899
0.09336760370415277
0.09603042142039953
0.09821807727193872
0.10021366252566512
0.10176273570853478
0.10307407079504873
0.10408398547811738
0.10465913868488094
0.10519639625507442
0.1058453345489338
0.10678329687096252
0.10836200179606195
0.11064947889869929
0.11348436312079609
0.1165647415240845
0.11986681083998085
0.12314436759387772
0.12627788883936542
0.12911834619349308
0.13104300314139444
0.1320277360063227
0.13235020859824606
0.1317894349692828
0.1301776335933047
0.12788109781253365
0.1251341586448014
0.12208375587264605
0.11883154397370721
0.11569677649536585
0.11323933194405444
0.11146219342077834
0.11010579250925545
0.1095576107609007
0.11010479249852627
0.1111581848266416
0.11260951159808182
0.1143187499340857
0.11567003825389457
0.11645809545211455
0.1163429572119674
0.11515677828656648
0.11293102823896074
0.10932621968998124
0.10443673806558389
0.09865252437168331
0.09223071914341166
0.08522861199263665
0.07788767932351091
0.07069607195029863
0.06388855103697853
0.05801929071200934
0.05345719195615231
0.05013569696300389
0.048025944516137065
0.04706015095632725
0.04705977186320921
0.04763115699006769
0.04829139553785121
0.04899597514335077
0.04947975435194031
0.04941997790661633
0.048626726074862944
0.04666334145181908
0.043085932401315724
0.038151933432356885
0.0320697839010463
0.025112922375411413
0.0177638502402366
0.010104768679680479
0.002808997789197465
-0.0037154300693432313
-0.009161966209762978
-0.013543455796698606
-0.017098233152649966
-0.01971766111794325
-0.021562824548594192
-0.022824417409105888
-0.02379479575847318
-0.024860943390933338
-0.026423189711069037
-0.028781640046567553
-0.03210421910156444
-0.03628543410744155
-0.04107494619021616
-0.04679396079854417
-0.05329501288529871
-0.06025136651286793
-0.0673176867088669
-0.07383454524879637
-0.07933308477260441
-0.08356195429525874
-0.08658638364984457
-0.08869429982246138
-0.09034472735783797
-0.09159800862678308
-0.09225153241393365
-0.09252598212079198
-0.09270408629517295
-0.09267959754034732
-0.09279975306321288
-0.09331581029086468
-0.09449978143430879
-0.0964191735587951
-0.09902366156349625
-0.1024872344535448
-0.10644997914689129
-0.11042367217927813
-0.1141358216563426
-0.1177405176745993
-0.12086193567107495
-0.12329734984395894
-0.12515597646361698
-0.1262816156940257
-0.12630647619722837
-0.12507435103400627
-0.12288858933762543
-0.11966476892951526
-0.11577302080205143
-0.11107920774205968
-0.10605490721124135
-0.10159033724882982
-0.09777581375715193
-0.09473148517064223
-0.09245636009195798
-0.09105890636038412
-0.0903408433281577
-0.09041164162758018
-0.09099981250637121
-0.0914769019558896
-0.09140188079362845
-0.09028777535166792
-0.08812669855638129
-0.08487704732869716
-0.08076329561060605
-0.07603592159086466
-0.070894699217914
-0.0658260358541596
-0.060988871087088906
-0.05630858024952491
-0.051863445254242926
-0.04809832637475185
-0.04531741582155757
-0.04346872213062568
-0.0426495552726497
-0.042687923078821785
-0.04341985225307257
-0.044540560963924516
-0.04542790247594326
-0.04590753824282223
-0.04574251920135024
-0.04434016233804851
-0.041296263043891904
-0.036719591541563776
-0.03086549981924079
-0.02405185145945854
-0.016989121180211467
-0.010084787598783992
-0.003200210581385754
0.0034972393234046495
0.009664916045669256
0.015131383945532956
0.019626060211907576
0.022897640591932902
0.024862455583744385
0.025557293024452955
0.02502034497522866
0.023663036279701018
0.021799671003722057
0.019764055527837804
0.01794455417668067
0.016593637751166325
0.015984249229666826
0.015998546500525693
0.01682169693272291
0.018476452611001837
0.02079577981987287
0.023658117916751244
0.026612933531676312
0.02927408455269287
0.03165182625718938
0.032008090894536274
0.0322135511482881
0.033802104276616965
0.03452716959395148
0.03440208191397959
0.03381382794126209
0.03316434446331423
0.03283125103098544
0.03313104530333344
0.03391269287698541
0.03510738440724198
0.03664931780921189
0.038550108669155383
0.040968444013176133
0.04360542652870081
0.04655176901553659
0.04996617307503705
0.053773111406755184
0.05760291320755441
0.060587535564295025
0.06210027023921717
0.06204045557748204
0.06057849527205178
0.05780402971151305
0.053916612031589276
0.049478854051812696
0.04516947292059019
0.04106742224552329
0.0374694634379356
0.03454121968119547
0.031208620355561045
0.029179980429404583
0.029609342367573954
0.03134122484935926
0.03429128346967908
0.03793038776551061
0.042020089616684964
0.04618636820238309
0.049594143842772914
0.051610211619322235
0.052239186031569615
0.05145218021645098
0.04904012085917392
0.045443780836146544
0.041043271006987334
0.03612344316692023
0.030953281868316126
0.025748896724687595
0.020787731179380264
0.0160692070657859
0.011666489604049174
0.007944997878003485
0.00509711800541042
0.0031521950113938824
0.002544419558358463
0.0032684588451247776
0.005092267262394853
0.007831984525475677
0.010903098697619254
0.013569753239358058
0.015328105916285847
0.016637684459013008
0.01700124308183612
0.016177767107285475
0.014651181720487023
0.01228270343909188
0.009279244288047356
0.0057625258058201095
0.0019599327754150353
-0.0020257926930896675
-0.005948834071237502
-0.009429724724199798
-0.012187795889752301
-0.014296378598153206
-0.015975009398551634
-0.017170664541431166
-0.017797735610683416
-0.017963475189423053
-0.017844329349978594
-0.017569607484242494
-0.017484400101914085
-0.017837819929218984
-0.018713730621196176
-0.02011498061637454
-0.02219154608787098
-0.024673099119826278
-0.027193015089878453
-0.029481305179976103
-0.03132230036698773
-0.03270076998501578
-0.03345492984332968
-0.03388107533610324
-0.03399797141435146
-0.03363811547813887
-0.0332780212409568
-0.032844332265180645
-0.03219396879924884
-0.03134200157422776
-0.03015435222387952
-0.029026909776142015
-0.028219658793221927
-0.02782701228126129
-0.02808524917467281
-0.02958640531240711
-0.03221322825882014
-0.03555475994818566
-0.03955785460647662
-0.0438358843500819
-0.048136599249973294
-0.05226025810621736
-0.05583378787085537
-0.058508429000011006
-0.06014526699178607
-0.060282010481718426
-0.058488845608847526
-0.05514894079745754
-0.05062655568891135
-0.04515554050911201
-0.03914423054933336
-0.03297762930544833
-0.027278141593096467
-0.022145272494122542
-0.01733601539620383
-0.01321648088071202
-0.009830870521591761
-0.007292990089194082
-0.005967693206611668
-0.005636083360345837
-0.005792131243375062
-0.006033648443276057
-0.006243126169334506
-0.005975486907708785
-0.00522337096108344
-0.004092865131543527
-0.0023126541040229404
-3.9047231057215415e-05
0.0024309452337432785
0.0049666578029405745
0.007594008250019685
0.009704631485000385
0.010951932400267358
0.011347736437013207
0.011128807253230823
0.010519245562477506
0.009172581749500669
0.00706319435729056
0.004504034338428706
0.001715868697534803
-0.00127934298285233
-0.0040139563441714265
-0.0061611793880020915
-0.007564629851796692
-0.007744768918726205
-0.006850029712890782
-0.004874076577669362
-0.0018140639960548682
0.0018087346368930446
0.00565200482589738
0.009319254155938976
0.012736275824293389
0.015685293874647552
0.017814337155260443
0.019762498635048475
0.020828362643973156
0.020392991393379016
0.019107151967906452
0.017100766042391788
0.014423502054848401
0.011198332553942217
0.007914333207093005
0.0046961241342706045
0.0017721496723005492
-0.0006811137639370357
-0.002982926062087471
-0.0052103127494085855
-0.007138200260060082
-0.008593292657868845
-0.009674628217592143
-0.010587890221616075
-0.011861532048026063
-0.013507138928443824
-0.015422915111624552
-0.018033325678006612
-0.02136295186754758
-0.025432812202573693
-0.030111709739117684
-0.03501427721753994
-0.03981519093598275
-0.04435805295149009
-0.04864554617091878
-0.05242050650880373
-0.055554519379155634
-0.05774282367023055
-0.05851593279958098
-0.05803227044743711
-0.05622100015685301
-0.05313102063320313
-0.04918394564177875
-0.04455494323525405
-0.03948486966654105
-0.03420117028467069
-0.029141258052484936
-0.024715248611693594
-0.021194839178694164
-0.018646558645337902
-0.016906876647101207
-0.01563389465493717
-0.014765625370668639
-0.014168292200913618
-0.013306266579892728
-0.012160950617064653
-0.010790097784697153
-0.008876565923699689
-0.006012489570236743
-0.0023384197646790505
0.0007836534137534018
0.004531677785728966
0.009637999164127671
0.014963520011198717
0.020367986673325962
0.025384644160690986
0.02998551987697807
0.03395952758802744
0.03722185093543656
0.03976928998889827
0.04156368980007645
0.04249697763557789
0.04287936476414353
0.0430409429171566
0.043031906142437695
0.04293708198466038
0.042910779852565945
0.043060506828691655
0.04344951104341975
0.04413649950275518
0.04502693676132878
0.04632908306431263
0.04834893295477212
0.05092534544871882
0.053868198875155024
0.05699790508484219
0.059475640350865625
0.06092479465919448
0.06144108915155294
0.0611542924908193
0.06030017829193031
0.058952971920690586
0.05707218412282182
0.0545469200635889
0.05153530943239712
0.04837325403257789
0.045339416188249465
0.04254629962997629
0.04028487319237936
0.03845482459351336
0.036849108754292204
0.03568187951769389
0.034780958101518614
0.034132702832723336
0.0336491731927734
0.03298689798482321
0.03200986133432153
0.030554037105526483
0.028615578566802836
0.026043449483504004
0.02288364848447847
0.01929266543880752
0.015567501506624622
0.012322265958544742
0.009834648937916933
0.008102827155302916
0.007011311480752208
0.006784633542224333
0.007445147820441866
0.0090112995270768
0.01131179798438861
0.01392326565904202
0.016893660349951642
0.02049020124760982
0.023734347815241356
0.025596593882160387
0.026155802673818437
0.02526655831785843
0.023056881231442485
0.019799590932516938
0.01571668722000804
0.011502642943822777
0.007437964236478509
0.003525218433772681
-4.760787317202586e-05
-0.0032537689106215267
-0.006031999008383332
-0.008437601553210466
-0.010225960640490944
-0.011429555333926186
-0.012340980948262067
-0.012938222542904429
-0.013275913459295893
-0.013220091077832494
-0.012794895373468923
-0.01228447236845244
-0.012104707127389591
-0.012384775792929653
-0.01313305556642494
-0.014467676106983574
-0.016460682843288943
-0.01921504315046993
-0.02237883552858777
-0.02565761062959976
-0.028662924874422263
-0.031588826202982895
-0.034171337217988026
-0.03575432633221169
-0.036505764429289905
-0.036362559706220765
-0.03541684295895697
-0.0337946370753819
-0.03172783469143883
-0.02939827150305095
-0.02697745695532433
-0.024887127753180638
-0.02337356272248549
-0.02307560339186497
-0.02410604109545489
-0.02608334934056039
-0.028720937284009623
-0.03193379449834648
-0.035789248845731605
-0.03979064490191221
-0.04313635179852948
-0.04559630374734702
-0.04729181890611937
-0.04811580296772293
-0.04752376123639447
-0.045268861073571934
-0.04157051363764168
-0.036750510850461174
-0.03107705322710555
-0.02491605513378152
-0.018910151732856123
-0.01366237234837292
-0.009588013198149642
-0.006850480348786839
-0.005710991543893082
-0.005777818326703293
-0.007014461372282843
-0.00945769185859792
-0.012134112034554043
-0.014724209142228023
-0.017076998065303675
-0.01875375661174218
-0.019344438038329984
-0.01798346993899702
-0.01423565249209241
-0.007699158276096171
0.002144157262775545
0.01569696592871561
0.03310353785494091
0.05433947842322255
0.07899886204137967
0.10631864705788382
0.13564905666720894
0.16622532801586984
0.19732572423380962
0.22834538933030685
0.25882816462649666
0.2887936584978319
0.3177409362158088
0.34654179754551234
0.3756433135321904
0.4040507583402118
0.43179927665738543
0.4585517394825022
0.4839944211898447
0.5074644502880371
0.5281217980437201
0.5454089141699767
0.5585886854417632
0.5669807082565583
0.5701085957745831
0.5672424847802209
0.5580862200570825
0.5428261802970984
0.5218037195988904
0.49550474366023967
0.46447510142280873
0.4292781628241693
0.39082695512824267
0.3500254130744698
0.3070966950510807
0.26259128904631596
0.2174770927372825
0.17210673465906584
0.1271097094823062
0.08303887786977561
0.039666703980702184
-0.0022924289054160885
-0.042171726940016585
-0.08009504757343902
-0.11603550660562326
-0.1498991459412923
-0.18164089778185472
-0.21122453238112301
-0.23880823537564647
-0.26432308031139096
-0.28774748280842377
-0.3092903895072186
-0.3287069874271388
-0.3457362839264975
-0.36006563955777954
-0.3716324318713807
-0.3804973926570434
-0.3865392976713157
-0.389801224001946
-0.39085243806032643
-0.389973446688441
-0.3872471928902463
-0.38298008290697155
-0.37753867975512306
-0.37112177079198283
-0.3639932351090032
-0.35647731943329525
-0.34887962383939997
-0.3416733725683301
-0.33466938854707545
-0.3279498586315143
-0.3217771566632626
-0.31580086015094944
-0.3098401461202762
-0.30379957051489326
-0.2973665204105284
-0.29009974997787225
-0.2818849143523719
-0.2729149773816355
-0.26311289536102467
-0.2524459108215269
-0.24107175739065673
-0.22880576562077565
-0.215514282116616
-0.20148396822486048
-0.18694893560120043
-0.17224208585451667
-0.15771373005157185
-0.14395273638349948
-0.13139827873481827
-0.11990126932483187
-0.10935587195443666
-0.09958556307640472
-0.09049675559687623
-0.08185079935080122
-0.07364552979753688
-0.06602645863887127
-0.05868211901042997
-0.05131923533043353
-0.043848468621342784
-0.03622343609818145
-0.02843822668628951
-0.020896975520842617
-0.013532061845237434
-0.006205074539659822
0.0011768695944337493
0.00840321689127238
0.014941869604725551
0.02062995039318844
0.025242544407008363
0.028869149181549668
0.031559436798939196
0.033213931015447215
0.034300226744012494
0.03503584181376332
0.03555164107781969
0.036194360147389984
0.03714043155030733
0.03833145129866426
0.03960026404202517
0.040715272367186015
0.041794254781172616
0.043171130355234066
0.04460057908570671
0.04596368635498019
0.046888557722373464
0.04695281444059099
0.04617151335758882
0.044896042705978564
0.04345779671300798
0.04187082356517867
0.04007433761417856
0.03790025169556949
0.03515460313108888
0.03188010400751043
0.02834159618725811
0.02471413592192683
0.021087962592859708
0.017696622434557926
0.015056374795111446
0.0135754584028401
0.013113073329484089
0.013422468404524629
0.014418522658933744
0.015870521340570806
0.01737448801682319
0.018327700107101427
0.018240149352492546
0.017026699072944303
0.014945454349553695
0.012352890472624736
0.009808442233752851
0.007279280073821878
0.004511316835524901
0.0021222890512337528
0.0005795949177466037
-0.00012670771386839863
-0.00023157060637973848
0.0005262760800343325
0.0022780971679216555
0.004660674019927383
0.007665932190136365
0.011172894479116666
0.014917705881238509
0.018726311966754235
0.02262109348535695
0.026176391429795727
0.028956257633190666
0.030739547594048518
0.03117264436701197
0.03018777245308065
0.028097381047238947
0.02534686282256647
0.022467971631144994
0.01988602136935337
0.017553127352996946
0.01568402449596866
0.014925459333861843
0.01536074575913933
0.016953086159831238
0.01973900824302513
0.023451768132141816
0.027615001527962466
0.0318916864443321
0.036262631481284634
0.040449127461186354
0.044264383335491764
0.047571258805913064
0.0500936205616382
0.05202084295565301
0.05356967130733395
0.054572705578093836
0.054948718345021186
0.05514406538249518
0.05502038567530691
0.05456027260892489
0.054529596077327824
0.05497668011833112
0.056094341929203206
0.05843374752048995
0.062248552077189975
0.06714027752945462
0.07247121968500213
0.07786448776280536
0.08304038358472278
0.08777407951083117
0.09166970596031791
0.09398589889501784
0.09470064833754151
0.09413270452928985
0.09232465971708968
0.08928286851556677
0.08509124502636597
0.08009230753509973
0.07472162697393198
0.06931489415746496
0.064113042490974
0.05923012817559195
0.05477234147508324
0.0509125859391856
0.04751389289976464
0.044855542701696324
0.043197671592801815
0.04252127484934752
0.042433664355895795
0.042341176814000084
0.042244374941555474
0.042106597174463356
0.041521509876294896
0.039885610282205594
0.03730483114721457
0.03395576736223738
0.02996925586154356
0.025804812151802803
0.021634044200520564
0.017692525526767935
0.014796054275586695
0.012554441967842458
0.010450587686311047
0.009114577179963237
0.008466253152709324
0.008242356724877248
0.008306059994874548
0.008416440207458672
0.007565871905980515
0.006075771426025528
0.004361411964306394
0.0015857263811384775
-0.002215844421787211
-0.007081478760118248
-0.013043973635160758
-0.019833359481467014
-0.02741695834284756
-0.035054958296542954
-0.042201283033863904
-0.048418949074779505
-0.0533374700841944
-0.05731951112620111
-0.060410706888827215
-0.06273087348196663
-0.06435753689475539
-0.06529108510254497
-0.06571988419213444
-0.06611988979809073
-0.06671492241016895
-0.06749138929026283
-0.06880802890144504
-0.07100016830013665
-0.07397096092562151
-0.07766442874324103
-0.08187712063934258
-0.08563524273382103
-0.08850927763760282
-0.09050764595520333
-0.09156636435983913
-0.09207447468112175
-0.09236168987956492
-0.09277546757999437
-0.09345571697454305
-0.09434704463830756
-0.09543402907500569
-0.09629240067262258
-0.09659880482629993
-0.09605117599565632
-0.09481473613229335
-0.09338143788253239
-0.09213941593774973
-0.09119218725625414
-0.09033849539016793
-0.08983550794889814
-0.08996091693108005
-0.09067606939626173
-0.0916825580790421
-0.0927365258843286
-0.09342282756237144
-0.09197618334470967
-0.08994441312625964
-0.08896870826323247
-0.08749942083739859
-0.0854220372057391
-0.08318880334607129
-0.08103884204349104
-0.07893604883050884
-0.07688358631779219
-0.07466106563546411
-0.07247124223108295
-0.07043001751777808
-0.06831098215791939
-0.06634817554721852
-0.06464931965724754
-0.0633520167529834
-0.06269593827461525
-0.06282990503725516
-0.06351937717100806
-0.06405888136955475
-0.064009578909912
-0.06292386083076874
-0.06053317929785536
-0.056849514174606874
-0.05199943446458406
-0.04610514503684851
-0.0393588064818301
-0.032203732397505
-0.02468537162819999
-0.01707066070488167
-0.009833760591588123
-0.003418853413090339
0.0019453178006705735
0.006232977495101766
0.009088189977122449
0.01092486934824078
0.011874214290017074
0.012024773639006711
0.011722410165506424
0.010921187152851626
0.010063030236461046
0.009339884398240017
0.008857205615331987
0.009159761813047541
0.010384846016758029
0.01236111745105005
0.015074329341762498
0.018136963618698154
0.021221315811347334
0.024242802852835775
0.02704777168139949
0.027855649465036235
0.02790188591075371
0.028609248756618154
0.028633336637151112
0.028164526972206394
0.027308606365082803
0.026240431161416673
0.025013204629506368
0.024012165981378945
0.02359842955329077
0.023811799171679277
0.024539043247154647
0.025746759710603397
0.027327797786766264
0.029478083449106053
0.03237996917847664
0.03564450192040937
0.039054198830048584
0.04240441316985205
0.04539153249815624
0.04773148816534098
0.04893616563331793
0.048736466001690945
0.047069732300513936
0.04391853980884998
0.03964281113615552
0.034509359789733685
0.028696798014341898
0.022709624929051334
0.017170907542578613
0.012590052493700016
0.009107853130407018
0.006741761940494612
0.005653773171913831
0.005583114089279431
0.0064679940261618
0.008545263443644542
0.011178261814172571
0.013879136795534167
0.01671040296121211
0.019246760156547082
0.02135008824950485
0.022519903213439524
0.022586518309242624
0.021951789923573224
0.0205858736597323
0.018388438178619612
0.015490867557149318
0.012464978204867042
0.009550490843642213
0.006934996013511767
0.004905401710645921
0.0038782599227471654
0.0038698372850072132
0.0048180797857176605
0.006847980223103803
0.00996220217999639
0.013825312548389694
0.017934156800173046
0.022336369188774005
0.027038636646643043
0.03145113915383935
0.03487202122198917
0.03746349582660963
0.03915705797513737
0.039370121733765154
0.038713126562690436
0.03746419210685199
0.035439760968545383
0.03347415184368259
0.03197864949118
0.030854495470082795
0.03030550234543506
0.03052141162400173
0.031380587460587264
0.03287856656976044
0.034934918950331975
0.0377701317874133
0.04117979414513713
0.0444866712826497
0.04750152106240976
0.0500474716708198
0.05195977558354574
0.05297393658370993
0.05280695229511091
0.051345266260642966
0.048857982606592604
0.04578676320665159
0.04243642545747674
0.03883359662735757
0.03545043479184966
0.032618088121636704
0.030422729846229096
0.029315477056425288
0.02882397599474184
0.02887491296841932
0.030439551117532215
0.03249109792575313
0.03376631415289051
0.0347180725682205
0.03510293483214236
0.03428469848004892
0.032264621649449196
0.029084538555232277
0.024415040631796142
0.018732318537367898
0.01297008483947723
0.007038120459201269
0.0010382032095845178
-0.004636277075899531
-0.009616837052501631
-0.014117475666226148
-0.018563743375751784
-0.022276545810139145
-0.026517597863004533
-0.030200867108983398
-0.02981554327192916
-0.027842805090671163
-0.027063620330872784
-0.026886660518299382
-0.02753615225003815
-0.028513440483187366
-0.02979574442039208
-0.032514069497854695
-0.037614770704638645
-0.04311511189695126
-0.04547792559246157
-0.0481614306565243
-0.05292409499258312
-0.05728179691986164
-0.06094908427299074
-0.06206017951147297
-0.062032541562128465
-0.062460938791276996
-0.06197706608445924
-0.060563499282512256
-0.059769044923496314
-0.057698137778077224
-0.05376486426132457
-0.04924727806027397
-0.04430556241079989
-0.04035623785000833
-0.03731296630299158
-0.035389688749450754
-0.03389123668987466
-0.03294483374367568
-0.03184991365929132
-0.03158593192100684
-0.033479499058048603
-0.03583120334951122
-0.03812274464352672
-0.03934674613924968
-0.03963915180186711
-0.039055891278674454
-0.03716836905109208
-0.03246178022459244
-0.02642350702379717
-0.02186780780588611
-0.01644807217760902
-0.008149178754838893
-0.00022099646582843246
0.003244042338652456
0.005298140952649438
0.0078070955326794145
0.010401163933512612
0.013216521722409537
0.014445887343529737
0.015298449117646919
0.016575970830050996
0.016872400881919027
0.016507090160416002
0.016786293093431513
0.017669933069287137
0.019081437986928608
0.020091731727872965
0.017894981957828952
0.015185483813981271
0.01538767794785445
0.0169098623071888
0.0184023491196596
0.019825460916726288
0.020398089696297347
0.02076565583889662
0.021572040516754667
0.02196973587272822
0.021945302287704367
0.021264116746222257
0.02074940561000433
0.01968565686120291
0.017774559999265513
0.016449724832913716
0.015381610497851528
0.014632044277624975
0.01444418322223695
0.014821540134786648
0.015616981561254878
0.01661673495663263
0.018623932169056348
0.020901776834586182
0.022385570336764922
0.02386348788417956
0.025368846961911433
0.026412022705399038
0.026571756023450313
0.02523178031161078
0.02386381898461013
0.02455683783476316
0.025137125547406505
0.024531016781077518
0.024709868891374866
0.024546465917719147
0.024062133141424545
0.02368704384441895
0.02311799882869125
0.02489821260615767
0.027279714183034737
0.02880533518571495
0.03067612462085101
0.03249365415963519
0.03477678465885693
0.036560529480925474
0.03749817520483609
0.038271029515125274
0.03855209420104952
0.038333328403063666
0.03779462810341515
0.03669661922356911
0.03596939396174992
0.0364481001669715
0.03679299624665276
0.03779249601668372
0.03999907813977416
0.04270041074247158
0.04626781585718434
0.051531132577958674
0.057404644015706566
0.06331347086677082
0.07028016399541544
0.07632293773217275
0.08356407832534245
0.09190977168757661
0.09821815451593784
0.10255806227511569
0.10477657280612429
0.10521980387554228
0.10365984269511118
0.10070686818472373
0.09794233988619852
0.09480467539184015
0.0909163944661727
0.08737606723915116
0.0849911065240209
0.08299110900151951
0.080911929249898
0.08036406378790731
0.08058612823544828
0.08034009139076988
0.08088286297584499
0.0820904119820694
0.08373274989584797
0.08652271432543039
0.08714575523488996
0.08338838104721076
0.07712801256786386
0.07076729155314979
0.06507464179770903
0.05853760066367432
0.05096597381654752
0.042072519951258325
0.03360022474520838
0.025361735097823038
0.016808419729859587
0.010625387868113123
0.006016308468217324
0.0045354056378128504
0.0028713079624647364
-0.0024942695126932007
-0.006930483296829007
-0.01211813514955655
-0.019782255186656966
-0.02595528820060669
-0.03219847021374202
-0.036480674570706376
-0.0400995806184677
-0.045652182605433356
-0.050512145677656356
-0.057311891449288874
-0.06561607399198142
-0.07337465256932173
-0.08052419603657957
-0.08909022019935463
-0.09710169717692187
-0.10330453867829627
-0.10786555541431053
-0.10867676156766984
-0.10953576053504101
-0.11222288795441601
-0.11535414694443816
-0.11658693629966844
-0.11543816674506291
-0.1131351314636971
-0.10912233989222334
-0.10608246467161182
-0.10545304100105075
-0.10243869184258853
-0.09864429520267333
-0.09810893294766979
-0.09684090216705898
-0.09596735918316038
-0.09628522505835904
-0.09604687877702711
-0.09591933919914285
-0.09381288706120247
-0.0909702310781186
-0.08852326360232347
-0.0847063856367286
-0.07983724824556833
-0.07551924977722271
-0.07154518987558793
-0.06600819768027183
-0.0596890533308887
-0.053509215551996295
-0.04758954419878439
-0.04207998969448598
-0.03864548492693212
-0.036276584638115186
-0.033910690255009535
-0.03289369644553748
-0.032960312392661464
-0.03382110012079942
-0.0346811460053703
-0.03497999048293167
-0.03486258093958121
-0.034354619923735355
-0.033332555460801425
-0.03190505472957761
-0.030361338858587425
-0.0286757191887327
-0.02660126559110107
-0.0242792353186662
-0.021991798039652066
-0.02030144841583617
-0.019325463761522207
-0.018948709668243857
-0.019061347396920364
-0.01970763601902953
-0.02081599837685584
-0.02183426157011925
-0.022504576039227536
-0.02251139910294482
-0.02092788086415076
-0.017297443203349333
-0.011532028631757701
-0.0032574559562324745
0.007610034160147827
0.02110445057770953
0.03717578333601377
0.05562086236921407
0.07646529775469735
0.0996146435037752
0.12460156798100147
0.15068432303981133
0.1774236314252421
0.20485152796523526
0.23269849947641902
0.26104507450637915
0.28959341630743146
0.3175424250204826
0.3455552287729781
0.37351031562855375
0.4002520774161646
0.4252940472082503
0.4482214844685708
0.46853938539599926
0.4853811760555707
0.49838949746148864
0.5072769750857852
0.511264743544281
0.510081894677354
0.5038980992832361
0.492440617551669
0.4754684699962002
0.4528083962658256
0.42457444018867563
0.39137332903087946
0.35364026833133877
0.3125037992532086
0.2691078681000302
0.2241983772545174
0.17855452571550662
0.13302174545807377
0.08861684534073441
0.046031017761546805
0.0054616846757762905
-0.033023158653343904
-0.06917963290493513
-0.10312022607175714
-0.1349197306129552
-0.16458012342610628
-0.19210940212439845
-0.2176700046985379
-0.24130851532158257
-0.2627393761872228
-0.2820727923891641
-0.30001351299795365
-0.31707853022644283
-0.3328257867021738
-0.34684394608486885
-0.35957015421336125
-0.37097219889270827
-0.38061440625213994
-0.38842752501412653
-0.39424016790464234
-0.3978227299785396
-0.3988171906773236
-0.39722959790343626
-0.39348226999239505
-0.38782918113960807
-0.38062590737689744
-0.3720247953675947
-0.36232173071907836
-0.35216975588466143
-0.3419601930602606
-0.3319118740676994
-0.3223786422600957
-0.3138401094074289
-0.30640898385917337
-0.2994810813705772
-0.29241318571127317
-0.28471328567524007
-0.27603277354207806
-0.26623311200177435
-0.25518741883050056
-0.2432265494542636
-0.23021739665199742
-0.21644720009484072
-0.20267151157733698
-0.18907902394422066
-0.17577200086428346
-0.1627712500186821
-0.15005822946527242
-0.13750309398337074
-0.12494625514450886
-0.11290749712253734
-0.10172463287673641
-0.09208445647693636
-0.08392063640517845
-0.07686902572461833
-0.07065887940951154
-0.06469871379816264
-0.05832076395845445
-0.05075034678842856
-0.042453885968295885
-0.03349944311502907
-0.024176035608369534
-0.015165354246390525
-0.0066602229628111576
0.0012713430335503095
0.008604322238110862
0.015316936378838797
0.02150212243730322
0.027099858733687768
0.03175784865116097
0.03544558058606256
0.03824879488439323
0.04021334407746795
0.04186832519082166
0.043562672633474395
0.04510311132539284
0.04638299049754194
0.04774933498148397
0.04956497692898351
0.052057741387920506
0.05532801923322915
0.05913303020917733
0.06335486044557816
0.06799319193245934
0.07297212554898747
0.0778845880441978
0.08219969351354268
0.08556943137301996
0.08789292625490665
0.08915285830077167
0.08933601646695072
0.08828427656169513
0.08626192150955697
0.08351991603808306
0.08051921202432231
0.07769341479148138
0.07507718092645412
0.0727396558718208
0.07052175710972446
0.06853416941860913
0.06688017152307589
0.06573019565182214
0.065577662718744
0.06606460993868477
0.06681584961858027
0.06766431019215358
0.06789478624293502
0.06739546501514244
0.0661750496517244
0.06424378313939852
0.061464515558203994
0.05771088908964782
0.05294144788895677
0.04730619051946938
0.04120887732419516
0.034732372000952305
0.028290398761972133
0.022643395138445266
0.01816835582647549
0.01499272354951927
0.013158039764142392
0.012587857629068187
0.013281163274879465
0.014786948734844402
0.01690257105105221
0.01936158028225146
0.02168956318392328
0.023739011248997417
0.025148990151355757
0.025470788720168495
0.024620984576022797
0.022785019090098904
0.01999105496528991
0.016528705703149273
0.012932271995027785
0.009220249624265694
0.005893970037590263
0.0034231073694007685
0.0015394139994439199
0.0003613267130310044
-0.0001879725592396353
-0.00021962835306164885
0.0004953229576350887
0.0017233205637223886
0.003169158605445102
0.005001423458406179
0.006819283211928748
0.008506789645013238
0.010029839117274592
0.01154289020574134
0.013116613118393801
0.014333566508677426
0.015323604394054571
0.01606050975640949
0.016631997028198814
0.01726971995309734
0.01815382334257029
0.0196015766098108
0.02157447598412248
0.024146463506652692
0.0275340649613426
0.03178946053514859
0.036810349822634585
0.04238686155813866
0.04813430647973775
0.053690946592531166
0.058829242222924655
0.06289029189258123
0.06570486712589796
0.06730364220102417
0.06760730549487662
0.06676831084095906
0.06452387622718138
0.060891684442729604
0.05645036050949938
0.051671187675788474
0.04699770030119706
0.04262288719573533
0.03868991707259779
0.035406370568702605
0.03289090968993762
0.03125276037738568
0.030703581072562776
0.031401803577009606
0.0328601836695699
0.03454458147729361
0.03625037641684635
0.037524938899599555
0.038093268986110124
0.037773556823822746
0.0363976210803859
0.03421978743952232
0.03118356676714973
0.02727557895897805
0.02263457152944444
0.0175045486277422
0.012413668336953648
0.007374160829186863
0.0024717682690204718
-0.0019157667161633363
-0.005546805426624682
-0.008345415356694433
-0.010391490469413733
-0.011836621399364325
-0.01278768410291696
-0.013383662582946668
-0.013830495672712023
-0.014284798613601643
-0.01526564523543128
-0.01703575238916641
-0.019653549841571097
-0.023469092178216647
-0.028398437774322147
-0.03413634831158478
-0.04057987650524045
-0.04763032266007389
-0.05508165205802791
-0.0624044129268687
-0.06925059557606311
-0.07525756298612551
-0.07993837612498336
-0.08306279033000002
-0.08475388113868149
-0.0853545533708735
-0.08489232755297768
-0.08350770578913866
-0.08181890735306946
-0.0807049710660886
-0.08050608804663623
-0.08112986583805024
-0.08241277561406805
-0.08397614701676967
-0.08550078211017532
-0.0871706761950784
-0.08934420722219494
-0.09187283768881335
-0.09465326451669802
-0.0977365662849556
-0.10083501805082011
-0.10345517034996944
-0.1049118021790279
-0.10489960993682407
-0.1036941469714073
-0.10133438660066658
-0.0980834553467271
-0.0945630277001888
-0.09079963290305254
-0.0869676906165727
-0.08315678384331848
-0.07959978574084128
-0.07688667358679069
-0.07501101454597428
-0.07362954214059156
-0.07249289368462368
-0.07132899678600942
-0.06995684144493994
-0.0685418672438616
-0.06731395997523351
-0.06589322167789853
-0.06366304137791734
-0.0603443256778642
-0.05571531588980558
-0.04994355224611738
-0.043338455742592236
-0.03637899633990492
-0.02947877173373334
-0.022914398823009358
-0.016721459703869207
-0.01115551610260107
-0.006491958788219815
-0.002986806242638723
-0.0007655430228098586
0.0005785122344132004
0.0012437652411560057
0.001418480138197467
0.0009460356121754332
1.603378879273809e-05
-0.0008945444627448812
-0.0017470662067782528
-0.0017241694511390404
-0.0007676586077259295
0.000653602018928251
0.0026560209494729398
0.005198435102145557
0.008277841873605779
0.011555058581179299
0.014822610723959524
0.018332123052071846
0.022021573270407782
0.02564619009582976
0.029013506501641154
0.03145989169786355
0.03251360830592088
0.0318472707899673
0.02986522694791971
0.026988164279070026
0.023353287511315587
0.019761258864413662
0.01640579153494183
0.01361692468763813
0.011628554317596448
0.010286001462130337
0.009628170714349689
0.009689630148029052
0.010500776332634354
0.012013596513930996
0.014069382144261705
0.016294322911495907
0.01833690193919288
0.019904748828835167
0.020724672411398463
0.020765490582983652
0.020148967644820208
0.018954132672062286
0.01733126393875334
0.0156459252454023
0.014204380818361312
0.012921508225713266
0.012163345180566554
0.011974498565468894
0.012060401182330163
0.012478468638126544
0.013244461786104271
0.01470700358821598
0.016707842166698475
0.01868759756729977
0.020604668482450024
0.022271359135506763
0.023549332655031785
0.024086583776759575
0.02374069598450549
0.02256647856108688
0.020431767016188096
0.017475624759846355
0.013868201651852319
0.009994363074618956
0.006141881776790231
0.002729742551734235
-7.308013447861195e-05
-0.0025932888913583474
-0.004654858341084242
-0.006093806360346454
-0.007129954745411782
-0.007896481547090023
-0.008370413827369277
-0.008642625704276652
-0.009022247038965495
-0.0095760474669081
-0.010440632552781645
-0.01196660549218316
-0.014295293932980513
-0.01722228745517905
-0.020591116598966105
-0.024067566407003513
-0.027635098194664046
-0.031054705351363343
-0.03421397753996415
-0.03700810182409857
-0.03915368872239772
-0.040684098705655106
-0.041297604057962164
-0.04115992446763066
-0.04042883765971729
-0.03921700801738014
-0.037594412227345275
-0.03525591826825575
-0.03202865050610801
-0.02819924802724233
-0.024261825785257984
-0.020792305853134352
-0.017772136092608623
-0.015368616732374885
-0.013960297065185673
-0.013006944358823977
-0.012297559163132882
-0.012377346946620502
-0.013049178912849624
-0.013828620079498949
-0.014744077688772186
-0.01574743267186879
-0.016793245870607793
-0.017392296653007025
-0.017123661255570105
-0.01622699741307053
-0.014854756972560806
-0.012891050440142202
-0.010526367398403555
-0.008052347769065979
-0.005445554543374753
-0.0032423957463200426
-0.0016478142273934904
-0.0005548979467007303
-0.00019663098040470506
-0.00015725041597033917
-0.0006034490599333975
-0.0018019749581797556
-0.003219911414930568
-0.004616603077777573
-0.005654513387995164
-0.0057572878036844105
-0.004981616107574749
-0.0033460531054800985
-0.0008704915845813843
0.0022751668204692432
0.006115461958579468
0.010448229782502996
0.015045009396615266
0.019504491900481334
0.023450217319170845
0.026864962548774483
0.02936205463691567
0.030767029892386916
0.031179608007710198
0.03073348346079264
0.02948226422052725
0.02744140049207918
0.024850882241152353
0.0218260459190601
0.018699660812348286
0.015710104863033175
0.013266848922408571
0.011715640962282656
0.011006575181995465
0.010867154942205054
0.011300270110520559
0.01230699075950105
0.013626258346525415
0.01501202529037704
0.016233046619669185
0.016998237066031097
0.016812343749894952
0.015473440372423479
0.012906822829965962
0.009492292477139758
0.0053657265369563695
0.0007311711550185007
-0.003995088930941609
-0.008831099208052223
-0.013309859528284715
-0.016993853192473707
-0.019734923012739214
-0.021433849549497327
-0.021963249062317378
-0.02116965547823424
-0.019284776521390753
-0.016380523692949484
-0.012973781439951898
-0.009514176787572201
-0.00605206560557954
-0.002969563795833144
-0.0002895908562608879
0.002041890748221087
0.004113828503021458
0.005750078140148246
0.0068980871325475535
0.007398299931924687
0.0069911365332694375
0.006030678114298471
0.004776612734687373
0.003510849009062053
0.002460947954903356
0.0019143886254714138
0.002065282020699638
0.0028706939188988673
0.004362832097773647
0.0063095535072506745
0.008714770512954162
0.011208817000249088
0.013593107869966974
0.01568147439902301
0.017151132580358205
0.0180727680812754
0.018588737236529054
0.018424660019970972
0.017436435916236268
0.016272361505664093
0.015095304119907102
0.013909434126805217
0.012755895439976184
0.011710434323389793
0.010732263841046634
0.009820091703123243
0.00904691964864035
0.008592508949983993
0.008475942035436793
0.008379347184496518
0.008450594173727247
0.008865262485761596
0.008671174978117632
0.007645568269664962
0.005879259851890903
0.0033852547540608735
0.00047547367750964964
-0.003225619482960018
-0.007547571539281012
-0.011956510093717343
-0.016248464884051184
-0.020195028556398875
-0.023805918177560573
-0.02660759146214632
-0.02800887627722848
-0.028351502475707294
-0.027550188904606004
-0.025714147258108694
-0.02302330950240858
-0.019314275640869946
-0.014994561666715006
-0.010895032302024599
-0.007423265551994115
-0.004699783751967029
-0.0031704380510960417
-0.0028040537687177153
-0.0034192076717799724
-0.005065928367685213
-0.007639424807809894
-0.01085261907695341
-0.014173673916325596
-0.017288863126743076
-0.020090181104765722
-0.022477104931723474
-0.02398440321522184
-0.024512541314565775
-0.024491694338407158
-0.02414138779824615
-0.023333894320926238
-0.022173796723214623
-0.021020733741208233
-0.019989194167509466
-0.01952116264924779
-0.019844060732582047
-0.02079715700815947
-0.02241371728492024
-0.02427664696700406
-0.026216775119739674
-0.02848424418337228
-0.03094099000655942
-0.033345211193912816
-0.03543278953691549
-0.03706821771201636
-0.03805113919698634
-0.03823248235497724
-0.037176941835755525
-0.03496292058590478
-0.032039393533000934
-0.02842078696868429
-0.024345857852959993
-0.020598159613876177
-0.017540534674824887
-0.015437328862657515
-0.01494326553838242
-0.015961705999004386
-0.017802320171496966
-0.020074901228273254
-0.02274660182951091
-0.025562216171967897
-0.028467688779130293
-0.0311143811861799
-0.03310123826083412
-0.03427675275340064
-0.034538181549784205
-0.03397767858239989
-0.03249812995350393
-0.030048180511501543
-0.026396378598886203
-0.02192406508275163
-0.01721491274714912
-0.012557290118776473
-0.008482261973915453
-0.0054496563823401845
-0.0034790617978011223
-0.0024370145623156397
-0.0024187324535927673
-0.0036595012955477346
-0.005930226041303638
-0.008938410463524657
-0.012444467524051248
-0.016110373542093923
-0.019729851374256854
-0.022997720047996884
-0.025702809745184296
-0.02768563686864249
-0.028910117030137128
-0.029158529987379833
-0.02875005830219267
-0.027763105938738472
-0.02608694799512086
-0.023768395019646504
-0.020890451674487526
-0.017941896632732657
-0.015195914452267464
-0.013131675205891119
-0.01234600183448245
-0.0128748444619054
-0.014599379143713842
-0.01751619718489176
-0.02087462712957771
-0.024154485621343175
-0.027351144451265158
-0.029939663016442762
-0.031428835190768334
-0.03165816285491059
-0.030852568908448355
-0.02892862215367685
-0.025885590918521093
-0.021986417542237596
-0.01766649110506692
-0.013149865222028073
-0.008498695437751946
-0.004106557352859558
-0.00023069226995070524
0.0030376258281940016
0.005688833929998624
0.007901735319942864
0.009436269643150037
0.009920143237830345
0.009788015355752341
0.009077802909687474
0.007826771875604807
0.006778315142732583
0.006295122132611047
0.00660455093260847
0.007992234212243828
0.010500089073212565
0.014499083786451802
0.019552049902393176
0.025022218806998613
0.03075685574991449
0.03642576210459568
0.04160744229533768
0.04590748440980223
0.049292863503483594
0.05199560964007728
0.054123966193589584
0.0557812294749694
0.05699134888521887
0.0577036933608437
0.05783494385475972
0.05723412208362427
0.05635678974940965
0.055594339223195746
0.05509076832676682
0.05509216392931374
0.05601417915991251
0.05790967388102186
0.06037906351330426
0.06311987031844134
0.0661820909776995
0.06950014561959303
0.0726024900196543
0.07527014822448845
0.0773731408233956
0.07856781586117328
0.0785712727408721
0.07734448425550053
0.07463111906926868
0.07082717426935412
0.06645645633089033
0.061789265161415904
0.05715468517018801
0.05260123692184622
0.048546275112028914
0.04515707651629958
0.042291194121707634
0.03992496602134932
0.03788592823689861
0.035973984603565864
0.033814855553424714
0.030983374068154906
0.027379831020134027
0.022652393178362255
0.016585500872716784
0.009352599317390117
0.0013431261739841882
-0.007000578034445745
-0.015410977872449716
-0.023562244612118324
-0.03133516054480984
-0.0386188589988678
-0.04538503849064206
-0.05183182216924927
-0.05766254610382457
-0.062302773948774565
-0.06525369424645812
-0.06653537260425732
-0.06643186075562409
-0.064916258761004
-0.06233938364393926
-0.05962895936850181
-0.05761935775441096
-0.05634804655140914
-0.05581088838072104
-0.056076295057547215
-0.05698299120206975
-0.058526497581581335
-0.06058917256382093
-0.06309625519738499
-0.0657158477827385
-0.06802434749709327
-0.06988527457154804
-0.07102294140046489
-0.07125494125505612
-0.07059859478476545
-0.06918432465060863
-0.06691356754455376
-0.06399384427000963
-0.06088230959351745
-0.05774839444586201
-0.054602459804033054
-0.05156587691205251
-0.0485290927517678
-0.04561244503365931
-0.04341222439578413
-0.042077102074675354
-0.04129777751188268
-0.04081940488575139
-0.040848232565320136
-0.04124166314122983
-0.04171593248368419
-0.042115943389821
-0.042147453570857585
-0.0416468161879011
-0.04072230101632418
-0.03936518992260779
-0.03719651420147098
-0.03427195462583521
-0.03098079038786178
-0.02735481007111086
-0.023462028744483804
-0.019292678014099146
-0.015322009657729091
-0.012181756289834852
-0.00997913937506581
-0.008365726178350089
-0.0070498274129185
-0.0063519125094848305
-0.006273529103613618
-0.006181911491037556
-0.005445688740638152
-0.003957445588929506
-0.0015068642350254818
0.002249603611930426
0.007296000800445082
0.0136880440603242
0.021511394041206666
0.030842382304286306
0.04182276542785978
0.054432116936902475
0.06898139988058051
0.0857942610210158
0.10483330498705482
0.12598261927746263
0.1492017011812592
0.17433496688642477
0.20085879425808983
0.2285750962333917
0.2574804450865065
0.28741939882049317
0.31816861554978926
0.3495904418518259
0.38144207442946576
0.413494271877848
0.4451591626125412
0.47547658423906164
0.504330002632102
0.5312793665789606
0.555433275935022
0.5763346995004544
0.5932289725869011
0.6053445172675632
0.6117100762661359
0.612099728736691
0.6062440723781601
0.5937220393809916
0.5747153949361468
0.5492274327243463
0.5176890791052613
0.48055957333173654
0.43943949512359115
0.3958433454306203
0.35038199156863775
0.303857645215055
0.25695228027164707
0.2100097877078156
0.16346481636102295
0.11787319692237955
0.07353093790800093
0.030526411136877096
-0.010726415832434888
-0.05014144956691617
-0.08794073809738455
-0.12407702041041097
-0.1587339040546436
-0.19160442429902758
-0.22270306956970382
-0.2519741275312348
-0.27929612288982963
-0.3045605783218521
-0.3273739148187841
-0.34767119303515354
-0.3652498447167478
-0.3798902481474993
-0.39176662400882356
-0.4007528926468804
-0.40655294271719594
-0.40956749727705855
-0.41025526196767825
-0.408904860536899
-0.40586758485713725
-0.4013293532975254
-0.39569227819116515
-0.3892999204492994
-0.3827374902273135
-0.37636901281478424
-0.3698661310993585
-0.3631440973544608
-0.3561239573318827
-0.3486580191369343
-0.3405344659375159
-0.331779490701955
-0.32245670539369575
-0.3125158686181061
-0.30198597968601026
-0.29078435474244146
-0.2785376579492508
-0.2655307443347297
-0.2524053168584855
-0.23924348166797627
-0.22571321993939306
-0.21221064813162924
-0.1994424862606924
-0.18758664926964685
-0.17703080547869804
-0.16798645800774792
-0.16020145361806437
-0.15350979396010006
-0.14745483830162595
-0.14141993264979616
-0.1351607641958446
-0.12863456366517778
-0.12221116081028753
-0.11549350621507809
-0.10818399518301414
-0.10041408361599644
-0.09197371719144976
-0.08251875707227996
-0.07210097195411178
-0.06144138284860719
-0.05069693446596463
-0.03997804894439094
-0.029834774713997217
-0.020298358201351993
-0.0112475900146939
-0.0026416574643148283
0.0055218398191213755
0.01332083087610237
0.020866744786172592
0.027930125583384438
0.03459450409846497
0.04101387125437678
0.04714752567001172
0.05288366170326701
0.05811842810451788
0.0632393723489719
0.06838753824781493
0.07347208234066863
0.07866829623384758
0.08380564771262736
0.08883577248862504
0.0935275494224843
0.09725568653044205
0.09991939297826904
0.10153868288224636
0.10220975392220419
0.10191405684482643
0.1003393292203293
0.09764243761068161
0.0941599230338721
0.09002406210208333
0.0854725536485837
0.08095301928359463
0.07688571188355439
0.0732175483390186
0.06986033201142614
0.06710237181899974
0.06528709220535543
0.06432505769293535
0.06405542843914593
0.06447398745946713
0.06527718000069477
0.06595563066560503
0.06599415986173551
0.06524564029926919
0.0635741697975892
0.060929182172064875
0.05752640412992015
0.05357059207637657
0.04921841040413927
0.044804126596221766
0.0405674122472571
0.03647240753893362
0.0333034833285602
0.03153413754958177
0.031084163020010845
0.031688440508343976
0.032983372696966363
0.035071964703681346
0.03786265436497632
0.04115583629950978
0.044427804574400806
0.04733563699597422
0.04970716309814209
0.05115902947073857
0.05185471683751025
0.05221033137511663
0.05202236107027279
0.05128726788831005
0.05030091914957503
0.049118659827289746
0.04779302475102193
0.046336556649984345
0.04479861191725716
0.04363499935393918
0.043012260601719476
0.04293642636598444
0.043448792123497226
0.04451204348807668
0.04586634411505222
0.04715524872902156
0.04845344683351317
0.049496228463549535
0.0502217595790926
0.050684492079292515
0.0507503022834046
0.05025717681980525
0.049426603429990335
0.04865355361484626
0.04808555089270011
0.04767452851097104
0.047821326637975226
0.04912397206230165
0.05158269533182323
0.05538040584477308
0.060424606214369445
0.06643884517402458
0.07327233994986923
0.08100435835266542
0.08948354397261937
0.09789597584227791
0.10562633245156845
0.11239636563264167
0.11783593282719919
0.12189888569525642
0.12447143543275992
0.12556261317562345
0.1258547953938454
0.12558184393268682
0.12474177786228131
0.12352037698383915
0.12209319491835188
0.12058847588952948
0.11908966946316427
0.11838196819372418
0.11882842200858913
0.12024581073111654
0.12219887506113208
0.12412853192709214
0.12603066786304842
0.12767828481288238
0.12885894811258203
0.12941171129038676
0.12903842868011517
0.12731297194363667
0.12428549042583913
0.12041604163477301
0.11617626791074395
0.11171251503953325
0.10720005626131318
0.10276642155674827
0.09823352423355318
0.0938808432584009
0.08970989282455517
0.08568437074593549
0.08225340039618827
0.07976262504070343
0.07812469995013074
0.07695753549425954
0.07619859313847122
0.07534154479477632
0.07361357937369412
0.07103552682369049
0.06722016213485374
0.06210502804169846
0.05570960953499007
0.04809308218905731
0.03961214027154458
0.030492616513630638
0.021208831914233464
0.01198346085173646
0.003137047918475591
-0.004807269165161013
-0.011881654494088734
-0.018416428672977714
-0.024128094529560093
-0.029013210205010673
-0.033442940298359314
-0.03706029376537073
-0.039829984975387825
-0.04257696675220671
-0.045629558029498404
-0.048960372035910374
-0.05272890401777895
-0.05715807808964134
-0.06219492064777825
-0.06775073923231062
-0.07333152999825167
-0.07884534453833601
-0.08431763696529745
-0.08969802473319079
-0.09464184031234851
-0.09860345844079454
-0.10155695359283641
-0.10359248143507674
-0.10494614867863825
-0.10561841757470686
-0.10542566654776071
-0.1043467563590729
-0.10277360617077282
-0.1011128738659458
-0.09982109280987626
-0.098991095748614
-0.09882033982832096
-0.09956676178873602
-0.10109792344806134
-0.10325000178628523
-0.1056813622690142
-0.10825639880929676
-0.11110777297706226
-0.11372682852418997
-0.11559937002660035
-0.11676551229407993
-0.11670691798326918
-0.11512636391687167
-0.11249315590044126
-0.10906501160037028
-0.10501182144460706
-0.10053211998770961
-0.09562755617164583
-0.09041250532691891
-0.08521847868061701
-0.08017071375091268
-0.07568401551141339
-0.07210909861447967
-0.06928905749816112
-0.06763241651796183
-0.06722184655041963
-0.06783378434749755
-0.06944136641143257
-0.07171888882114005
-0.07428416714761928
-0.07666587307169155
-0.07842192685949148
-0.07910178181770998
-0.0784714479892537
-0.07646376511351725
-0.07328003638553639
-0.06914987677932152
-0.06451484048362183
-0.05953060729169744
-0.05415836088381004
-0.04873478803188727
-0.04357620601290568
-0.03935091953258278
-0.03634900768472413
-0.03435572977363477
-0.033315344682678286
-0.03294955809169732
-0.03266027613542215
-0.032257655426622664
-0.031452139410763386
-0.030084580189812082
-0.028453570040316414
-0.026542643096627516
-0.02429993811831993
-0.022198539945251408
-0.02031027536042973
-0.01814394665576949
-0.01531349153064901
-0.011904708525148175
-0.007925423399895187
-0.003607837154065624
0.0005314087112110732
0.004379691305259711
0.007571669379743615
0.009877755985496763
0.011196505067624624
0.011695903631916069
0.011610459007831739
0.011124864886612476
0.01045091135665311
0.009527606668900665
0.008707617773111437
0.008731050520609226
0.009546441636762076
0.011289202141092192
0.013935019547520869
0.017086446548952187
0.021150053650445408
0.02587257677265256
0.03071667441124093
0.03525180503280045
0.038888538353515495
0.04144796547979332
0.0426907678647486
0.04254479984589653
0.04076028727509136
0.03762821400136493
0.03364891502793749
0.028997049480483067
0.024322194974989428
0.02004839960731916
0.016386707755977017
0.013533545993910698
0.011671049939266855
0.010669793197423061
0.010517370891393138
0.011534518541383335
0.013498235842913181
0.016084786929175157
0.01902557786773082
0.021881353291992638
0.024202666650633982
0.025755005814816115
0.026431964019897607
0.02591291753246728
0.02442104752336418
0.02224313269913184
0.019650445758836246
0.01715933613544058
0.01477076569648187
0.012485343315622635
0.010414951767398109
0.008887252902111328
0.008282788414587267
0.008398224564755807
0.009003349118673773
0.010140989192844209
0.011998642835676934
0.014341089193650028
0.01664843037045053
0.01880457430238399
0.020775342112674094
0.0224919675191571
0.023444175774030088
0.02334099344864888
0.022805065287842444
0.02201310984593719
0.020685383392125167
0.018821143866107913
0.016644448968405397
0.014403802291256061
0.012258343085261358
0.010320037402444651
0.008730636023864924
0.007547845367885123
0.006936295160495459
0.007086145406061159
0.008136579950357839
0.009694882350374509
0.0113164045247863
0.012918234030889236
0.014124948419013184
0.014250315483496867
0.01332266752647119
0.01152044296441336
0.008753300806840038
0.00534840155331219
0.0013543836594610004
-0.003106982267273198
-0.007436373397939358
-0.011145771776660582
-0.014113499374716107
-0.01596700554079583
-0.016434045503459824
-0.01585818285417545
-0.014341825088138985
-0.011872232182681575
-0.008737796125250441
-0.005285648473397672
-0.002177500973260166
3.447653257590555e-06
0.0008610087608301037
0.0002501500293253245
-0.0015890834899394551
-0.004464950321804981
-0.008231619539601664
-0.012340363229038698
-0.01623770713979962
-0.019702130282993183
-0.022266436835529688
-0.023754901506515214
-0.02434041729850049
-0.02392751718475787
-0.02246662039280725
-0.02021179519447089
-0.017403906869370933
-0.014196326006475982
-0.010920236540988282
-0.007663623306149864
-0.00465786315516839
-0.002305525127677427
-0.0007967589161029104
-0.00012169326702937688
-0.00023146260544017194
-0.0013755449359080796
-0.003301615379820738
-0.005621670582574831
-0.008230636691414994
-0.010731394336413486
-0.013048953282173356
-0.015187823710872142
-0.016929539698525356
-0.01821889778869608
-0.018819345274003432
-0.01854792454938639
-0.01749574667885423
-0.015676207369903272
-0.013438910446230995
-0.010927343205248685
-0.0083142389689604
-0.006208525155264072
-0.004659732718651402
-0.003898787340979759
-0.004177483216436545
-0.005245655216310888
-0.00723813991241011
-0.009832475132605364
-0.012500906622480185
-0.01526846070981673
-0.017823532712699902
-0.01998572350541361
-0.021623957334256566
-0.022170221574442914
-0.021689489844650564
-0.02043173672711128
-0.018336315713421314
-0.015609097446714557
-0.012482423535189566
-0.00925002882495439
-0.006299659343027328
-0.003957420800617825
-0.0021557771849616547
-0.0007553512081499153
0.0003758929720753812
0.0010650990402889249
0.0015232369344380242
0.001614262590866597
0.0009882618095649193
0.00032316598839715605
-0.00022792358351966802
-0.00037275301729086663
0.00012475364537528622
0.00129843051364964
0.003103703956835055
0.005496903296940928
0.00850973591410055
0.012021388603367503
0.016028585281809046
0.02026641020212626
0.02448542880746276
0.028525865203731758
0.03208938302210272
0.03508320683858076
0.03749625502218966
0.0392453838246222
0.0407008506463636
0.041950776763037864
0.04289249176102093
0.043653680813126386
0.04409434990841006
0.044158360856740145
0.0440172920021195
0.0439444620306851
0.043973124101091665
0.0440598088791983
0.04472156502659273
0.04610746118418928
0.04798337941355264
0.050276871040407484
0.05276989390872171
0.054996703328384355
0.05685552159328866
0.05840063905230418
0.05908870030273003
0.058821147335413326
0.05784299289187381
0.0561631450547975
0.053940793074075344
0.05132698308251411
0.04887390682956268
0.047099645432138904
0.04578191545972764
0.044896680106523285
0.04430851852702726
0.043852206835264806
0.04385584185279176
0.04451459940830772
0.046047083388568735
0.04824684197181893
0.05062046929296203
0.052852936753215535
0.05450000855390166
0.05514620012703733
0.05503665933918783
0.054292157862508836
0.05276751411498129
0.05032863322937066
0.046740609297796
0.04226978097447816
0.03739200561384118
0.032443704188908656
0.027443380475917947
0.02289219093451545
0.01933386813955549
0.016643720125100264
0.014739363272769507
0.013429571152851219
0.012607468012065096
0.01243170737165876
0.012937812085869416
0.01385956374654708
0.014945773346073443
0.015922884185289976
0.016608727391587988
0.016721464075962977
0.016072479993243106
0.014784460423550763
0.013011651499916912
0.01112350603027111
0.009281282527268883
0.007487471466762818
0.005818677328611202
0.004458084728341277
0.003651235408044462
0.003515511535751678
0.0041964179454884315
0.0057910459273780995
0.008239137555789727
0.011221240018729373
0.01432422693243695
0.017457418771404103
0.020275158435957154
0.022490960313994043
0.02394913174607892
0.02454284505440909
0.024360276034810814
0.023412051147715746
0.021747549804998045
0.019675615363112457
0.017115416965273897
0.014104058275339032
0.011161308096619853
0.008365838704194203
0.005865510207749752
0.004095944190651429
0.003464118600190788
0.0039025162958745974
0.005456269087265916
0.00775533033657573
0.010822087186392174
0.01478696571534599
0.01902581819520356
0.023137756230589536
0.026709482542078937
0.02946604317859943
0.0309655675686479
0.03131755373914845
0.030888538294647237
0.02954133329134158
0.027447365727543964
0.024955772039914642
0.022172340447259284
0.019271655292604876
0.01626918930061897
0.013365776416839566
0.010898537407130496
0.008810773755649717
0.007196962084601341
0.006181663554697028
0.005545309211717558
0.005117824548620004
0.004366875553995786
0.0027562935745570616
0.00023147918313941307
-0.0034794294867554476
-0.008367905917002275
-0.014199348226618488
-0.02082514817638023
-0.027880258552447412
-0.035057847072155646
-0.04199502266557911
-0.04816568625050002
-0.05333841512807873
-0.05770798004423551
-0.061533993464516754
-0.06468978443110376
-0.06698392038594678
-0.06857392931616264
-0.0696469637060285
-0.0706034698846885
-0.07178262414925266
-0.07320467602288092
-0.07518556275720653
-0.07824357908302057
-0.08256472479492873
-0.08757599145586906
-0.09325814034022063
-0.09970278617634512
-0.10613811718543822
-0.112323011512654
-0.11832937866346184
-0.12403924680550549
-0.12919387472463906
-0.1334030727793014
-0.1361171308576034
-0.1371217482258134
-0.13651820975799836
-0.13440624514160465
-0.13125586110635884
-0.12743699979650386
-0.12303856250078943
-0.11848051838938342
-0.11419490535671523
-0.11054944948986777
-0.10740399983413829
-0.10417908188454872
-0.10103760617679462
-0.0981323163321477
-0.09541995820458284
-0.0930825738234594
-0.09110402363268323
-0.08894728811841413
-0.08592257205613134
-0.08197984454037781
-0.07759559222937608
-0.07303252156634746
-0.06850064131494359
-0.06404826377674572
-0.059236898071931096
-0.05421384013741869
-0.04963885109634812
-0.04560936823620576
-0.0419177061456687
-0.038702686787822724
-0.036353720909824555
-0.0348619794139402
-0.0339934959528647
-0.03378718883051354
-0.03427770372268597
-0.03516075317932581
-0.03603785820413824
-0.03675805344264042
-0.03714282108617353
-0.037062687111576106
-0.03673222340238988
-0.03601882364509103
-0.03472465684015519
-0.032851626526444674
-0.03047758686185925
-0.027825895625977606
-0.02495828733617779
-0.022342580591423217
-0.020305755980359677
-0.018557968760907317
-0.017309837711096246
-0.016757712563878188
-0.016674753674484205
-0.016809395129347246
-0.016701561837356146
-0.01558508925551759
-0.012594587184424064
-0.0072948040662548785
0.0006047516628902433
0.011629822685113853
0.026153534056695286
0.04473944353444974
0.06745867637114156
0.09362210970541
0.12264713088467555
0.15386680773746114
0.18646253673651655
0.21943843322529802
0.25230463636745704
0.28467585589229644
0.31593128456101455
0.34586317267390704
0.373871003882851
0.3994335819597986
0.4224777173053701
0.4429047081389743
0.46077819039746903
0.476202455456628
0.4891708637705169
0.49942381427578
0.5065765116543736
0.510239307200061
0.5098703037058588
0.5047489864632124
0.4945844143313849
0.47908065171312275
0.4577891129971834
0.4309748071937783
0.3989024496580387
0.3622821485412587
0.32235183215037805
0.2800230786351112
0.2360843977830927
0.1909832524977646
0.14518037811480522
0.09877562711278962
0.052050507027001626
0.005679516928981575
-0.03985377257551161
-0.08387444915463951
-0.12575307050821055
-0.1648674982284307
-0.2010134649695839
-0.2341192802225971
-0.2642379572313436
-0.2915766640399303
-0.31622631828424036
-0.33865204109098257
-0.359222590208086
-0.37802916159271543
-0.39527406529052034
-0.4110029569671426
-0.42485383631878293
-0.43682697542132887
-0.4469280205816144
-0.45494443437084764
-0.46079422276573173
-0.46455541793476013
-0.4664189002428789
-0.4665693664339112
-0.46499916431144844
-0.4617060478569962
-0.4568044613713433
-0.45018327870378805
-0.4421523083984534
-0.4328205155200035
-0.42221955485604956
-0.4110524386818916
-0.39994376246668245
-0.3889590593377281
-0.3783455249700394
-0.36844583309622153
-0.35905889311395106
-0.34980838443024215
-0.34034052680499727
-0.3305097343542266
-0.3199199181418608
-0.3084617216246518
-0.29603494520890217
-0.2825854782896445
-0.2683258603138746
-0.25349520734996944
-0.2384685132280821
-0.22344967389961523
-0.20825811408325914
-0.19317118669547673
-0.17889547160022853
-0.16549692450471198
-0.15307216605354715
-0.14182074055061078
-0.13177785453495433
-0.1228986947926266
-0.11476581419510162
-0.10691065654580144
-0.0991900399921451
-0.09154352632519425
-0.083802540414596
-0.07592065802889567
-0.06770587890351673
-0.05931367989982486
-0.05085337048675382
-0.04224178273950126
-0.033624465348063494
-0.02476609030523303
-0.015632373843069515
-0.006526733235722684
0.0024147938437018984
0.011139335425873156
0.01918863821974237
0.02613431228674485
0.031688848241197685
0.0361070839054644
0.03974319726398044
0.04263440996057221
0.044743409228285895
0.04637222310236316
0.048103472371415046
0.05059558742323087
0.05405546502422296
0.05841419917585824
0.06367890706310439
0.06951884980796935
0.0757706009969
0.08209349886326713
0.08824184121443833
0.09417141135271394
0.09943208895759967
0.10364030561615643
0.10655049525912277
0.10789858013072112
0.10762707125053722
0.10564943019211878
0.10218690912348065
0.09756314773897452
0.09186218348514344
0.08572406098334273
0.07971387480116801
0.07410150012468911
0.06906481978925155
0.06454600986880182
0.060675295213594355
0.05746149734682814
0.05520863330485209
0.05419943533959799
0.05436101486646121
0.055398349495234464
0.056808666288331144
0.057969949725815886
0.058484815192552886
0.05760992572551946
0.05502325507950615
0.051245767142701924
0.04658408640360704
0.041403095609522045
0.036530564262587564
0.032445315089289765
0.02899949430964744
0.026610457906500268
0.02592751195102433
0.026885854615648512
0.02908509955636414
0.03259212498811314
0.03720556258194602
0.042286709959214144
0.0471600381594168
0.05156380366691117
0.055439572916077165
0.058622381830327266
0.060847701120401235
0.06179546535432913
0.06131759033209579
0.05965113238013384
0.05731973353215604
0.054333404463256005
0.050740628441767535
0.04725831813087927
0.04429896555436512
0.042285627522045496
0.04138965064122657
0.0415083156087704
0.042951475791312976
0.045559871841346744
0.04906899686529399
0.05326507882853482
0.057796590732057854
0.06259288040621142
0.06721481712215281
0.07113892309554419
0.07413604001283239
0.07599363518975001
0.07696182713670945
0.07738965329166887
0.0771600044348361
0.07635080712296585
0.07540892686526054
0.07453116496204977
0.0738649436805766
0.07354809443187482
0.07411827266427727
0.07596621674808794
0.07859953141409945
0.08188839340061362
0.08567180615985806
0.0895367474210312
0.09298352226291269
0.09573009832297005
0.09799727069328532
0.09973333944610284
0.1007052679778073
0.10069641412409887
0.09998978398884507
0.09851831984468729
0.09603523417156967
0.09279531323624193
0.08911439482441565
0.08532753879705894
0.0819729057078601
0.0796662282168656
0.07835026878379416
0.0780056359023585
0.07831371213232013
0.07897342191714736
0.07992424124877516
0.0807364747791781
0.081267426226333
0.0814955095279195
0.081289716395103
0.08082588649235631
0.07993506365761358
0.07860862285894808
0.07717453666589813
0.07545746995475515
0.07340519162678084
0.0711184252852332
0.06817159659816993
0.06450178103876075
0.06042398794252697
0.056197999652071576
0.05229140774347482
0.04869596444895197
0.045849459850264285
0.043900439426276805
0.04261379630236535
0.04202726544837759
0.0416534391214588
0.04114560746333494
0.0403645848490474
0.039143249204249775
0.03747473606073902
0.03527947830233262
0.03229825777934632
0.0283271112470342
0.023846989244694666
0.019236590855461075
0.014368281293982606
0.009494967730926826
0.005114576815529959
0.0013956586423033435
-0.0018030257580919917
-0.004503995014745341
-0.006395003023329612
-0.007557180269064809
-0.008440829525307975
-0.00917199385048606
-0.009571854305162983
-0.009771058888546638
-0.010078882188748708
-0.011008654806045556
-0.012854628816930502
-0.015630078346340323
-0.01927039543821936
-0.02348921196796419
-0.028201961437990627
-0.03310459832308453
-0.03798546447686174
-0.042720266926466785
-0.04708109900391397
-0.0510038252448293
-0.05446667857619332
-0.05733893147429674
-0.05964832768944775
-0.06116211960260194
-0.061478014867362624
-0.06104012717304068
-0.059858444920120685
-0.05824210222240704
-0.0569290717323324
-0.055904639947499446
-0.055302970940122195
-0.055620863223024106
-0.056950177907045846
-0.05896504846986114
-0.061543509600861065
-0.06419738646184489
-0.066840059628719
-0.06953902972236654
-0.0719482962705399
-0.07404139393281062
-0.07549675877135185
-0.07605145539555955
-0.07542395439256089
-0.07335327602144319
-0.06974729672492595
-0.06474712868927388
-0.05863809716829685
-0.05184013335918902
-0.044898366271801396
-0.037953095191408326
-0.03165691325964003
-0.02621155660380496
-0.021729620665282473
-0.018462883223340026
-0.016309469236374635
-0.015468134447828144
-0.015898541807353006
-0.017187137480708325
-0.01909191430201193
-0.021272236286986865
-0.023147017249357013
-0.024134255740253657
-0.024210797352882937
-0.023543525061604814
-0.022068073563843632
-0.020061141418186434
-0.017226056034919335
-0.013286600856353178
-0.008619002224315733
-0.003429841109916537
0.0016389641582288533
0.006282576695116143
0.010476372940643928
0.013677687928199386
0.015640191293882715
0.01576409616320508
0.01479352681826493
0.013467606979020406
0.011662987892113244
0.010158068724966711
0.009162121257185019
0.00946544160043103
0.01143441335548142
0.01455265702031494
0.018778389046168284
0.02399478782230976
0.030312520710251367
0.03738592092732481
0.04473940680103125
0.05211158520245729
0.058810509451714024
0.06444874785502684
0.06877713009384318
0.0717514420217613
0.07370607497052238
0.0746975540599168
0.07489333216431654
0.07419252573826787
0.07261457996641907
0.070887118445399
0.06909861641998619
0.06725792816182555
0.06574554198106795
0.06458299626357229
0.0635662982774094
0.06265227689144372
0.06217212071451575
0.062137971947299725
0.06203911914745709
0.06165657474901841
0.060673903058469356
0.05887007884271858
0.05633752206118382
0.05297910106622533
0.04851996225866037
0.04333760139905807
0.037862991657609604
0.03209245664630851
0.026618631618250545
0.022108793425793034
0.01877756307764407
0.01671149231475815
0.01591382172632192
0.016086333954757573
0.01690899658258447
0.018228222156614023
0.01989835687402059
0.021483996264337002
0.02257651089239071
0.02316561166432464
0.0233918912399537
0.0230535951426449
0.02200008652754209
0.020091961287582456
0.017126359019503996
0.013287840812925
0.008938239011340887
0.004604815960474254
0.0004478361156874944
-0.0034199111107465208
-0.006186494598955775
-0.00750184776291718
-0.007562235822611299
-0.006332352706299907
-0.00400596231389333
-0.0006937642702708885
0.003497457399053036
0.008167283208514203
0.012901117829041991
