0.3002526539052781
0.29624613693003793
0.2898357097696538
0.2806207207266014
0.2649953045231649
0.24896923662220427
0.22493013477076343
0.19928842612922654
0.16883889711740144
0.13678676131548032
0.10753918739622727
0.07388444480421007
0.04423621918743302
0.02460428600875632
0.0021677909474115244
-0.013056973558501017
-0.02467587278669743
-0.03268890673717771
-0.041503244082706024
-0.04430780596537413
-0.04550976105794617
-0.04550976105794617
-0.04550976105794617
-0.04270519917527807
-0.040701940687658
-0.04030128899013398
-0.040701940687658
-0.0435065025703261
-0.04510910936042215
-0.0491156263356623
-0.0547247501009985
-0.0575293119836666
-0.05712866028614259
-0.05712866028614259
-0.05712866028614259
-0.05151953652080638
-0.04550976105794617
-0.03869868220003793
-0.029083041459461584
-0.01906674902136123
-0.012656321860977001
-0.0058452430030687605
-0.0010374226327805893
0.0053730045276036385
0.005773656225127653
0.0037703977375075815
0.0037703977375075815
0.001366487552363496
0.0037703977375075815
0.0037703977375075815
0.0017671392498875102
0.0029690943424595527
0.0053730045276036385
0.006574959620175681
0.012184083385511881
0.019395813940944136
0.029412106379044494
0.04063035390971689
0.05024599465029323
0.059060331995821544
0.07027857952649394
0.07829161347697423
0.0830994338472624
0.08790725421755058
0.08950986100764662
0.08950986100764662
0.08830790591507458
0.08630464742745451
0.08189747875469036
0.0750863998967821
0.06747401764382585
0.057457725205725486
0.052649904835437314
0.046640129372577104
0.04583882597752907
0.04704078107010112
0.04704078107010112
0.049044039557721186
0.05465316332305739
0.05946098369334556
0.06867597273639789
0.07228183801411402
0.0750863998967821
0.08069552366211832
0.08269878214973839
0.08470204063735845
0.08630464742745451
0.08269878214973839
0.0770896583844022
0.07188118631659
0.06306684897106168
0.06106359048344162
0.05625577011315344
0.05184860144038929
0.04984534295276922
0.04704078107010112
0.044636870884957026
0.04543817428000506
0.048643387860197174
0.051447949742865276
0.05665642181067746
0.06747401764382585
0.07348379310668607
0.07909291687202226
0.08069552366211832
0.08149682705716635
0.0802948719645943
0.07668900668687817
0.07268248971163803
0.06707336594630184
0.06106359048344162
0.05665642181067746
0.053451208230485346
0.05024599465029323
0.04543817428000506
0.043034264094860976
0.04022970221219288
0.038627095422096816
0.038627095422096816
0.03942839881714485
0.04183230900228893
0.043034264094860976
0.045037522582481046
0.04704078107010112
0.049044039557721186
0.04784208446514915
0.048643387860197174
0.04343491579238499
0.03742514032952477
0.032617319959236606
0.02740884789142442
0.021399072428564207
0.016190600360752025
0.011783431687987865
0.012184083385511881
0.010982128292939838
0.011783431687987865
0.01298538678055991
0.014587993570655966
0.01578994866322801
0.018193858848372095
0.01979646563846815
0.023001679218660264
0.02540558940380435
0.03021340977409252
0.03301797165676062
0.03381927505180865
0.029412106379044494
0.02460428600875632
0.018594510545896108
0.013786690175607937
0.008177566410271737
0.005773656225127653
0.0029690943424595527
0.004571701132555611
0.006174307922651667
0.00937952150284378
0.014587993570655966
0.020197117335992165
0.027809499588948433
0.03221666826171259
0.043034264094860976
0.04623947767505309
0.053451208230485346
0.057057073508201474
0.059060331995821544
0.057457725205725486
0.05665642181067746
0.05104729804534126
0.046640129372577104
0.03982905051466886
0.03341862335428464
0.029412106379044494
0.026206892798852376
0.02460428600875632
0.023001679218660264
0.026206892798852376
0.03101471316914055
0.03782579202704879
0.04704078107010112
0.057057073508201474
0.06947727613144591
0.07909291687202226
0.0830994338472624
0.08710595082250254
0.08870855761259859
0.08950986100764662
0.08470204063735845
0.08229813045221436
0.07588770329183014
0.07107988292154198
0.06867597273639789
0.06306684897106168
0.06306684897106168
0.0606629387859176
0.061464242180965634
0.06106359048344162
0.06747401764382585
0.06987792782896993
0.0742850965017341
0.08069552366211832
0.08269878214973839
0.08510269233488248
0.08630464742745451
0.08470204063735845
0.08790725421755058
0.08350008554478641
0.08149682705716635
0.0750863998967821
0.07027857952649394
0.0690766244339219
0.0662720625512538
0.06306684897106168
0.061464242180965634
0.05986163539086957
0.05946098369334556
0.0606629387859176
0.06306684897106168
0.06947727613144591
0.06987792782896993
0.07107988292154198
0.07268248971163803
0.07588770329183014
0.07869226517449823
0.07989422026707028
0.07829161347697423
0.07548705159430613
0.0690766244339219
0.062265545576013666
0.053451208230485346
0.04543817428000506
0.03782579202704879
0.03141536486666456
0.026206892798852376
0.02099842073104019
0.018594510545896108
0.01899516224342012
0.01899516224342012
0.019395813940944136
0.026206892798852376
0.03181601656418858
0.03742514032952477
0.038627095422096816
0.04343491579238499
0.044636870884957026
0.04423621918743302
0.04383556748990901
0.04063035390971689
0.03421992674933266
0.029412106379044494
0.026206892798852376
0.018594510545896108
0.017392555453324066
0.014187341873131951
0.010982128292939838
0.012184083385511881
0.011382779990463852
0.012584735083035894
0.014187341873131951
0.012184083385511881
0.011783431687987865
0.012584735083035894
0.014187341873131951
0.018594510545896108
0.018594510545896108
0.01779320715084808
0.011783431687987865
0.006975611317699695
0.00016453245979145326
-0.003441332817924675
-0.006646546398116788
-0.00864980488573686
-0.01345762525602503
-0.01345762525602503
-0.01425892865107306
-0.01706349053374116
-0.01425892865107306
-0.015460883743645102
-0.012656321860977001
-0.011053715070880946
-0.007047198095640803
-0.007047198095640803
-0.007047198095640803
-0.004242636212972703
-0.003441332817924675
-0.0058452430030687605
-0.009050456583260874
-0.015460883743645102
-0.02026870411393327
-0.026278479576793485
-0.031086299947081657
-0.033890861829749756
-0.0378973788049899
-0.039900637292609974
-0.04030128899013398
-0.04310585087280209
-0.04310585087280209
-0.040701940687658
-0.036294772014893846
-0.029884344854509616
-0.024275221089173415
-0.01906674902136123
-0.015460883743645102
-0.012255670163452989
-0.012656321860977001
-0.015460883743645102
-0.019467400718885246
-0.025477176181745456
-0.03268890673717771
-0.039900637292609974
-0.0491156263356623
-0.0575293119836666
-0.06153582895890673
-0.06474104253909885
-0.06514169423662286
-0.06674430102671892
-0.06754560442176695
-0.0659429976316709
-0.0659429976316709
-0.06393973914405082
-0.06353908744652681
-0.06113517726138273
-0.05913191877376265
-0.060734525563858714
-0.06674430102671892
-0.06994951460691104
-0.07235342479205513
-0.07515798667472322
-0.08196906553263146
-0.08918079608806372
-0.0915847062732078
-0.09639252664349597
-0.097193830038544
-0.09879643682864006
-0.09679317834102
-0.0939886164583519
-0.08797884099549168
-0.08236971723015549
-0.07435668327967519
-0.06674430102671892
-0.06193648065643075
-0.05873126707623864
-0.058330615378714624
-0.058330615378714624
-0.058330615378714624
-0.058330615378714624
-0.06474104253909885
-0.06914821121186301
-0.07676059346481928
-0.08397232402025154
-0.09038275118063577
-0.09679317834102
-0.10240230210635619
-0.10480621229150028
-0.10680947077912036
-0.10961403266178844
-0.10961403266178844
-0.10761077417416838
-0.10440556059397627
-0.1028029538038802
-0.09759448173606802
-0.09559122324844795
-0.09438926815587591
-0.09078340287815978
-0.09038275118063577
-0.0887801443905397
-0.08958144778558774
-0.0915847062732078
-0.09679317834102
-0.10360425719892823
-0.11081598775436048
-0.1168257632172207
-0.12363684207512894
-0.13164987602560924
-0.13525574130332535
-0.13525574130332535
-0.13525574130332535
-0.1312492243280852
-0.124838797167701
-0.1224348869825569
-0.11602445982217267
-0.10961403266178844
-0.10400490889645225
-0.097193830038544
-0.09639252664349597
-0.0947899198533999
-0.09238600966825583
-0.09038275118063577
-0.09038275118063577
-0.0939886164583519
-0.097193830038544
-0.10240230210635619
-0.10921338096426444
-0.11602445982217267
-0.124838797167701
-0.13164987602560924
-0.1420668201612336
-0.1420668201612336
-0.14407007864885368
-0.14407007864885368
-0.1420668201612336
-0.12884531414294112
-0.12123293188998487
-0.10961403266178844
-0.09759448173606802
-0.08918079608806372
-0.08156841383510745
-0.07275407648957913
-0.06954886290938703
-0.06474104253909885
-0.06273778405147878
-0.06474104253909885
-0.06554234593414689
-0.06554234593414689
-0.06353908744652681
-0.058330615378714624
-0.05272149161337843
-0.0435065025703261
-0.03469216522479779
-0.025076524484221444
-0.01906674902136123
-0.011053715070880946
-0.0030406811204006607
0.004171049435031595
0.007776914712747723
0.012184083385511881
0.012184083385511881
0.012184083385511881
0.008578218107795752
0.005773656225127653
0.0005651841573154674
-0.006245894700592774
-0.012656321860977001
-0.015861535441169115
-0.014659580348597073
-0.015861535441169115
-0.012656321860977001
-0.013858276953549045
-0.013858276953549045
-0.011855018465928973
-0.007447849793164817
-0.006245894700592774
-0.004643287910496717
-0.004242636212972703
0.0017671392498875102
0.006975611317699695
0.012184083385511881
0.016591252058276038
0.016591252058276038
0.018193858848372095
0.018594510545896108
0.018193858848372095
0.018594510545896108
0.018594510545896108
0.01779320715084808
0.014988645268179978
0.014988645268179978
0.016591252058276038
0.02220037582361224
0.028610802983996465
0.03542188184190471
0.04022970221219288
0.04704078107010112
0.04984534295276922
0.052649904835437314
0.057057073508201474
0.05585511841562943
0.05625577011315344
0.052649904835437314
0.04543817428000506
0.03942839881714485
0.03341862335428464
0.03141536486666456
0.02540558940380435
0.023802982613708293
0.02340233091618428
0.02460428600875632
0.029011454681520478
0.03381927505180865
0.042232960699812944
0.04704078107010112
0.05585511841562943
0.06707336594630184
0.0742850965017341
0.08069552366211832
0.08470204063735845
0.09031116440269465
0.09351637798288677
0.09592028816803085
0.09551963647050683
0.0943176813779348
0.08790725421755058
0.08350008554478641
0.08069552366211832
0.07588770329183014
0.07348379310668607
0.07268248971163803
0.07388444480421007
0.07588770329183014
0.0774903100819262
0.08189747875469036
0.08350008554478641
0.0915131194952667
0.09511898477298283
0.09832419835317494
0.1031320187234631
0.10473462551355917
0.10793983909375128
0.10793983909375128
0.10593658060613122
0.10473462551355917
0.10233071532841509
0.10072810853831903
0.099926805143271
0.09952615344574697
0.10152941193336706
0.10433397381603515
0.10793983909375128
0.10954244588384734
0.11394961455661148
0.11715482813680361
0.1227639519021398
0.12476721038975987
0.12717112057490398
0.12997568245757207
0.13197894094519214
0.12997568245757207
0.12677046887737994
0.12156199680956777
0.11515156964918354
0.11194635606899142
0.10834049079127529
0.10553592890860719
0.10353267042098713
0.10233071532841509
0.10433397381603515
0.10473462551355917
0.10874114248879932
0.11755547983432761
0.1251678620872839
0.1335815477352882
0.14039262659319643
0.14880631224120072
0.15441543600653693
0.15762064958672906
0.15601804279663298
0.15281282921644088
0.14720370545110467
0.14079327829072047
0.13318089603776417
0.12116134511204374
0.11435026625413551
0.10834049079127529
0.10433397381603515
0.10233071532841509
0.10353267042098713
0.10793983909375128
0.10954244588384734
0.11435026625413551
0.12036004171699573
0.12116134511204374
0.12196264850709178
0.12356525529718783
0.1255685137848079
0.1251678620872839
0.12156199680956777
0.12116134511204374
0.11715482813680361
0.11435026625413551
0.10753918739622727
0.099926805143271
0.09351637798288677
0.08670529912497853
0.0802948719645943
0.07107988292154198
0.06306684897106168
0.059060331995821544
0.05425251162553338
0.0550538150205814
0.057057073508201474
0.06306684897106168
0.07188118631659
0.0802948719645943
0.0919137711927907
0.0919137711927907
0.09551963647050683
0.09551963647050683
0.0943176813779348
0.09111246779774268
0.08670529912497853
0.08269878214973839
0.0774903100819262
0.07548705159430613
0.07188118631659
0.06987792782896993
0.06827532103887388
0.062265545576013666
0.057858376903249506
0.0550538150205814
0.053050556532961334
0.05024599465029323
0.04824273616267317
0.048643387860197174
0.049444691255245206
0.051447949742865276
0.05104729804534126
0.049444691255245206
0.045037522582481046
0.03982905051466886
0.03421992674933266
0.03141536486666456
0.029412106379044494
0.029412106379044494
0.030614061471616535
0.03021340977409252
0.030614061471616535
0.03181601656418858
0.03742514032952477
0.04063035390971689
0.04143165730476492
0.044636870884957026
0.044636870884957026
0.04423621918743302
0.046640129372577104
0.04824273616267317
0.05024599465029323
0.05024599465029323
0.048643387860197174
0.04623947767505309
0.04423621918743302
0.03742514032952477
0.03181601656418858
0.029011454681520478
0.02340233091618428
0.020197117335992165
0.01899516224342012
0.01899516224342012
0.017392555453324066
0.01979646563846815
0.023001679218660264
0.022601027521136248
0.025004937706280334
0.02540558940380435
0.026206892798852376
0.02740884789142442
0.029011454681520478
0.029412106379044494
0.028610802983996465
0.026206892798852376
0.022601027521136248
0.01779320715084808
0.009780173200367795
0.005773656225127653
0.0021677909474115244
-0.00023611923773256095
-0.00023611923773256095
0.00016453245979145326
-0.0010374226327805893
0.003369746039983567
0.006975611317699695
0.01018082489789181
0.014988645268179978
0.01979646563846815
0.021399072428564207
0.025004937706280334
0.025806241101328366
0.02540558940380435
0.023001679218660264
0.01979646563846815
0.018193858848372095
0.012184083385511881
0.008578218107795752
0.003369746039983567
-0.0006367709352565752
-0.007047198095640803
-0.012255670163452989
-0.01706349053374116
-0.01986805241640926
-0.02187131090402933
-0.01986805241640926
-0.015861535441169115
-0.009451108280784888
-0.004242636212972703
0.001366487552363496
0.005773656225127653
0.006975611317699695
0.008578218107795752
0.006574959620175681
-0.0010374226327805893
-0.007447849793164817
-0.015060232046121088
-0.024275221089173415
-0.0322882550396537
-0.037496727107465884
-0.04270519917527807
-0.045910412755470184
-0.050317581428234344
-0.05111888482328236
-0.05312214331090244
-0.05111888482328236
-0.05071823312575836
-0.0491156263356623
-0.0463110644529942
-0.041503244082706024
-0.033890861829749756
-0.025877827879269472
-0.01626218713869313
-0.0030406811204006607
0.012184083385511881
0.025806241101328366
0.04383556748990901
0.057858376903249506
0.0774903100819262
0.0919137711927907
0.11074440097641938
0.13318089603776417
0.15281282921644088
0.17685193106788175
0.1980864710366545
0.21691710082028315
0.2349464272088638
0.24896923662220427
0.2601874841528767
0.26820051810335693
0.28102137242412545
0.28542854109688953
0.28743179958450965
0.2842265860043175
0.2774155071464093
0.26259139433802076
0.24536337134448816
0.2241288313757154
0.19848712273417848
0.17084215560502153
0.1395913231981484
0.10874114248879932
0.08229813045221436
0.053451208230485346
0.029412106379044494
0.006174307922651667
-0.01626218713869313
-0.03429151352727377
-0.05071823312575836
-0.06393973914405082
-0.0771612451623433
-0.08757818929796767
-0.09639252664349597
-0.10320360550140421
-0.10921338096426444
-0.11362054963702858
-0.1168257632172207
-0.12163358358750886
-0.12363684207512894
-0.1284446624454171
-0.12764335905036908
-0.12323619037760493
-0.11602445982217267
-0.10600816738407232
-0.0939886164583519
-0.08317102062520351
-0.07395603158215117
-0.06353908744652681
-0.051920188218330394
-0.04510910936042215
-0.03829803050251391
-0.035493468619845814
-0.036294772014893846
-0.03869868220003793
-0.04430780596537413
-0.049916929730710324
-0.05392344670595047
-0.06113517726138273
-0.06434039084157483
-0.07075081800195906
-0.06914821121186301
-0.07155212139700709
-0.07075081800195906
-0.07035016630443504
-0.06514169423662286
-0.058330615378714624
-0.05111888482328236
-0.04270519917527807
-0.03308955843470173
-0.026278479576793485
-0.019467400718885246
-0.014659580348597073
-0.014659580348597073
-0.013858276953549045
-0.017464142231265172
-0.019467400718885246
-0.021470659206505316
-0.025076524484221444
-0.025076524484221444
-0.027480434669365526
-0.02868238976193757
-0.029884344854509616
-0.02868238976193757
-0.025877827879269472
-0.025477176181745456
-0.0210700075089813
-0.018265445626313204
-0.013056973558501017
-0.00864980488573686
-0.007047198095640803
-0.0010374226327805893
-0.0018387260278286178
-0.0014380743303046037
-0.004242636212972703
-0.006245894700592774
-0.009851759978308904
-0.017464142231265172
-0.022271962601553345
-0.026278479576793485
-0.03028499655203363
-0.02828173806441356
-0.029884344854509616
-0.03068564824955764
-0.027079782971841517
-0.0210700075089813
-0.02026870411393327
-0.017864793928789188
-0.015460883743645102
-0.012656321860977001
-0.013056973558501017
-0.01345762525602503
-0.013056973558501017
-0.011053715070880946
-0.012255670163452989
-0.018666097323837214
-0.01986805241640926
-0.025076524484221444
-0.02868238976193757
-0.033490210132225744
-0.03909933389756194
-0.03909933389756194
-0.04030128899013398
-0.04030128899013398
-0.03909933389756194
-0.03669542371241786
-0.03469216522479779
-0.03308955843470173
-0.03148695164460567
-0.025877827879269472
-0.024275221089173415
-0.024275221089173415
-0.020669355811457287
-0.02187131090402933
-0.025477176181745456
-0.027079782971841517
-0.029083041459461584
-0.03268890673717771
-0.03268890673717771
-0.036294772014893846
-0.03909933389756194
-0.04110259238518201
-0.04430780596537413
-0.04470845766289814
-0.04470845766289814
-0.04430780596537413
-0.039499985595085954
-0.03268890673717771
-0.025877827879269472
-0.01986805241640926
-0.012255670163452989
-0.005043939608020732
0.0037703977375075815
0.006174307922651667
0.008177566410271737
0.005773656225127653
0.0025684426449355388
0.0017671392498875102
0.0005651841573154674
-0.0010374226327805893
-0.007447849793164817
-0.012656321860977001
-0.018666097323837214
-0.01986805241640926
-0.020669355811457287
-0.01986805241640926
-0.01706349053374116
-0.009851759978308904
-0.007047198095640803
0.0029690943424595527
0.0073762630152237095
0.011382779990463852
0.01578994866322801
0.018193858848372095
0.018594510545896108
0.016591252058276038
0.013386038478083923
0.011382779990463852
0.008578218107795752
0.008177566410271737
0.004972352830079624
0.003369746039983567
0.0017671392498875102
0.003369746039983567
0.006174307922651667
0.012584735083035894
0.01979646563846815
0.027809499588948433
0.03742514032952477
0.04183230900228893
0.045037522582481046
0.04704078107010112
0.049444691255245206
0.048643387860197174
0.04623947767505309
0.04423621918743302
0.04063035390971689
0.03742514032952477
0.03341862335428464
0.03181601656418858
0.03141536486666456
0.03141536486666456
0.03141536486666456
0.03101471316914055
0.03421992674933266
0.039027747119620836
0.04423621918743302
0.04704078107010112
0.05184860144038929
0.05665642181067746
0.05946098369334556
0.06306684897106168
0.06987792782896993
0.07027857952649394
0.06947727613144591
0.06787466934134985
0.0662720625512538
0.05986163539086957
0.057858376903249506
0.0550538150205814
0.051447949742865276
0.048643387860197174
0.04543817428000506
0.042232960699812944
0.038627095422096816
0.039027747119620836
0.039027747119620836
0.03942839881714485
0.04423621918743302
0.04383556748990901
0.04704078107010112
0.04784208446514915
0.04984534295276922
0.05064664634781725
0.048643387860197174
0.04704078107010112
0.04423621918743302
0.03742514032952477
0.032617319959236606
0.025806241101328366
0.021399072428564207
0.01779320715084808
0.014988645268179978
0.013386038478083923
0.016591252058276038
0.01899516224342012
0.021399072428564207
0.02540558940380435
0.03141536486666456
0.03542188184190471
0.03542188184190471
0.03582253353942872
0.03421992674933266
0.03221666826171259
0.030614061471616535
0.02460428600875632
0.018193858848372095
0.010982128292939838
0.008177566410271737
0.0017671392498875102
-0.0010374226327805893
-0.0058452430030687605
-0.008249153188212845
-0.009050456583260874
-0.008249153188212845
-0.007047198095640803
-0.0018387260278286178
0.001366487552363496
0.004972352830079624
0.005773656225127653
0.00937952150284378
0.009780173200367795
0.008177566410271737
0.005773656225127653
-0.0010374226327805893
-0.007047198095640803
-0.012255670163452989
-0.01986805241640926
-0.025877827879269472
-0.03148695164460567
-0.03669542371241786
-0.04270519917527807
-0.0491156263356623
-0.05552605349604652
-0.05712866028614259
-0.05953257047128667
-0.05913191877376265
-0.05592670519357054
-0.047513019545566235
-0.039499985595085954
-0.02868238976193757
-0.0210700075089813
-0.018666097323837214
-0.015460883743645102
-0.015060232046121088
-0.017864793928789188
-0.01986805241640926
-0.022271962601553345
-0.027079782971841517
-0.03268890673717771
-0.03829803050251391
-0.04390715426785011
-0.046711716150518216
-0.05071823312575836
-0.051920188218330394
-0.05151953652080638
-0.05151953652080638
-0.050317581428234344
-0.047913671243090254
-0.04110259238518201
-0.03669542371241786
-0.0322882550396537
-0.0266791312743175
-0.025076524484221444
-0.025076524484221444
-0.025076524484221444
-0.027079782971841517
-0.03268890673717771
-0.0350928169223218
-0.037096075409941864
-0.039900637292609974
-0.04470845766289814
-0.04550976105794617
-0.046711716150518216
-0.05111888482328236
-0.051920188218330394
-0.05232083991585441
-0.05392344670595047
-0.04951627803318631
-0.0463110644529942
-0.04470845766289814
-0.0435065025703261
-0.04550976105794617
-0.04510910936042215
-0.0463110644529942
-0.05071823312575836
-0.05712866028614259
-0.06434039084157483
-0.07155212139700709
-0.08156841383510745
-0.08677688590291964
-0.09318731306330387
-0.09559122324844795
-0.09679317834102
-0.09679317834102
-0.09679317834102
-0.09318731306330387
-0.09038275118063577
-0.08998209948311174
-0.08437297571777555
-0.07635994176729527
-0.06954886290938703
-0.06474104253909885
-0.06113517726138273
-0.060734525563858714
-0.060333873866334695
-0.06193648065643075
-0.06113517726138273
-0.06393973914405082
-0.07115146969948308
-0.07676059346481928
-0.08397232402025154
-0.08918079608806372
-0.09038275118063577
-0.09278666136577984
-0.09438926815587591
-0.09238600966825583
-0.09038275118063577
-0.08597558250787161
-0.08277036892767949
-0.08156841383510745
-0.08116776213758345
-0.07635994176729527
-0.07355537988462717
-0.07115146969948308
-0.07235342479205513
-0.07676059346481928
-0.0771612451623433
-0.08277036892767949
-0.08397232402025154
-0.08837949269301569
-0.08837949269301569
-0.09038275118063577
-0.09238600966825583
-0.09118405457568379
-0.08837949269301569
-0.08397232402025154
-0.07916450364996336
-0.07676059346481928
-0.07595929006977126
-0.07115146969948308
-0.0719527730945311
-0.07115146969948308
-0.07235342479205513
-0.07796254855739132
-0.08357167232272752
-0.08557493081034759
-0.09038275118063577
-0.0947899198533999
-0.09879643682864006
-0.10721012247664435
-0.10961403266178844
-0.11321989793950457
-0.11562380812464866
-0.1164251115196967
-0.11602445982217267
-0.11241859454445655
-0.10520686398902429
-0.09759448173606802
-0.08918079608806372
-0.08357167232272752
-0.07676059346481928
-0.07235342479205513
-0.06834690781681498
-0.06754560442176695
-0.07115146969948308
-0.07355537988462717
-0.07635994176729527
-0.08156841383510745
-0.08757818929796767
-0.08958144778558774
-0.09038275118063577
-0.09318731306330387
-0.09559122324844795
-0.09438926815587591
-0.09238600966825583
-0.09238600966825583
-0.09038275118063577
-0.08958144778558774
-0.08557493081034759
-0.08317102062520351
-0.08036645874253541
-0.08196906553263146
-0.08357167232272752
-0.08837949269301569
-0.08918079608806372
-0.0939886164583519
-0.09679317834102
-0.09799513343359204
-0.09919708852616407
-0.10120034701378415
-0.10440556059397627
-0.10560751568654832
-0.10360425719892823
-0.10680947077912036
-0.10721012247664435
-0.10480621229150028
-0.10360425719892823
-0.0999983919212121
-0.09639252664349597
-0.09118405457568379
-0.08557493081034759
-0.08397232402025154
-0.0799658070450114
-0.08116776213758345
-0.08076711044005942
-0.08677688590291964
-0.09038275118063577
-0.09599187494597196
-0.0999983919212121
-0.10440556059397627
-0.10921338096426444
-0.11161729114940852
-0.11562380812464866
-0.11402120133455261
-0.10961403266178844
-0.10400490889645225
-0.09559122324844795
-0.08477362741529958
-0.07796254855739132
-0.07115146969948308
-0.06834690781681498
-0.06554234593414689
-0.06474104253909885
-0.06754560442176695
-0.06914821121186301
-0.07395603158215117
-0.0799658070450114
-0.08757818929796767
-0.09679317834102
-0.10680947077912036
-0.11201794284693253
-0.1168257632172207
-0.12163358358750886
-0.12003097679741283
-0.12003097679741283
-0.12163358358750886
-0.11842837000731676
-0.11802771830979274
-0.11602445982217267
-0.11442185303207661
-0.11362054963702858
-0.11121663945188451
-0.11161729114940852
-0.11362054963702858
-0.11602445982217267
-0.12003097679741283
-0.1196303250998888
-0.11802771830979274
-0.1164251115196967
-0.11802771830979274
-0.11602445982217267
-0.11602445982217267
-0.11201794284693253
-0.11001468435931246
-0.1080114258716924
-0.10360425719892823
-0.10039904361873613
-0.097193830038544
-0.09318731306330387
-0.09038275118063577
-0.08837949269301569
-0.08597558250787161
-0.08477362741529958
-0.08757818929796767
-0.08958144778558774
-0.09318731306330387
-0.09959774022368809
-0.10680947077912036
-0.11562380812464866
-0.12163358358750886
-0.124838797167701
-0.12884531414294112
-0.12964661753798917
-0.12644140395779704
-0.12564010056274902
-0.12443814547017697
-0.12083228019246084
-0.11842837000731676
-0.11241859454445655
-0.10520686398902429
-0.09679317834102
-0.0915847062732078
-0.08557493081034759
-0.08397232402025154
-0.08797884099549168
-0.09679317834102
-0.10480621229150028
-0.11602445982217267
-0.12764335905036908
-0.1420668201612336
-0.1480765956240938
-0.15007985411171387
-0.15408637108695403
-0.15248376429685798
-0.1496792024141899
-0.14727529222904578
-0.1420668201612336
-0.1280440107478931
-0.12003097679741283
-0.11362054963702858
-0.10600816738407232
-0.09919708852616407
-0.097193830038544
-0.09679317834102
-0.09759448173606802
-0.10200165040883216
-0.10881272926674042
-0.11482250472960064
-0.1224348869825569
-0.12604075226027303
-0.13285183111818127
-0.1420668201612336
-0.1420668201612336
-0.14647398883399776
-0.1480765956240938
-0.14847724732161785
-0.1480765956240938
-0.1456726854389497
-0.1420668201612336
-0.12764335905036908
-0.12043162849493683
-0.11602445982217267
-0.11161729114940852
-0.1080114258716924
-0.10680947077912036
-0.10680947077912036
-0.10721012247664435
-0.11161729114940852
-0.11442185303207661
-0.1196303250998888
-0.11802771830979274
-0.1196303250998888
-0.12203423528503289
-0.11922967340236479
-0.11602445982217267
-0.11402120133455261
-0.10961403266178844
-0.10761077417416838
-0.10160099871130816
-0.09599187494597196
-0.09118405457568379
-0.08958144778558774
-0.08597558250787161
-0.08677688590291964
-0.08958144778558774
-0.09679317834102
-0.10039904361873613
-0.10881272926674042
-0.11402120133455261
-0.12123293188998487
-0.12764335905036908
-0.13525574130332535
-0.1420668201612336
-0.1420668201612336
-0.12964661753798917
-0.1420668201612336
-0.13445443790827732
-0.12884531414294112
-0.1224348869825569
-0.11762706661226874
-0.11562380812464866
-0.11001468435931246
-0.1080114258716924
-0.10600816738407232
-0.10320360550140421
-0.10160099871130816
-0.10320360550140421
-0.10360425719892823
-0.10600816738407232
-0.11001468435931246
-0.11281924624198057
-0.11602445982217267
-0.11842837000731676
-0.1168257632172207
-0.11402120133455261
-0.10881272926674042
-0.10320360550140421
-0.09639252664349597
-0.0915847062732078
-0.0887801443905397
-0.08637623420539561
-0.08397232402025154
-0.08517427911282358
-0.0887801443905397
-0.0915847062732078
-0.09799513343359204
-0.10560751568654832
-0.11402120133455261
-0.1224348869825569
-0.124838797167701
-0.12604075226027303
-0.1224348869825569
-0.12163358358750886
-0.11722641491474471
-0.11041533605683648
-0.10360425719892823
-0.09438926815587591
-0.08637623420539561
-0.07956515534748738
-0.07355537988462717
-0.06994951460691104
-0.06474104253909885
-0.060734525563858714
-0.058330615378714624
-0.05913191877376265
-0.06273778405147878
-0.068747559514339
-0.07635994176729527
-0.08397232402025154
-0.09038275118063577
-0.09599187494597196
-0.09759448173606802
-0.10039904361873613
-0.10160099871130816
-0.1028029538038802
-0.10440556059397627
-0.10200165040883216
-0.10039904361873613
-0.09679317834102
-0.09438926815587591
-0.09038275118063577
-0.08437297571777555
-0.07916450364996336
-0.07756189685986732
-0.07876385195243936
-0.08116776213758345
-0.08317102062520351
-0.08757818929796767
-0.09599187494597196
-0.10120034701378415
-0.10680947077912036
-0.11001468435931246
-0.11562380812464866
-0.11602445982217267
-0.11602445982217267
-0.11562380812464866
-0.11161729114940852
-0.10761077417416838
-0.10200165040883216
-0.0947899198533999
-0.0887801443905397
-0.08277036892767949
-0.0771612451623433
-0.0747573349771992
-0.07555863837224723
-0.0799658070450114
-0.08397232402025154
-0.08958144778558774
-0.09679317834102
-0.10240230210635619
-0.10761077417416838
-0.11121663945188451
-0.10961403266178844
-0.10881272926674042
-0.10320360550140421
-0.10360425719892823
-0.09919708852616407
-0.097193830038544
-0.09438926815587591
-0.09038275118063577
-0.08797884099549168
-0.08397232402025154
-0.08317102062520351
-0.08397232402025154
-0.08156841383510745
-0.08397232402025154
-0.08637623420539561
-0.09038275118063577
-0.09519057155092393
-0.09839578513111603
-0.10600816738407232
-0.10761077417416838
-0.10881272926674042
-0.10721012247664435
-0.10400490889645225
-0.09919708852616407
-0.09559122324844795
-0.08998209948311174
-0.08597558250787161
-0.08397232402025154
-0.08397232402025154
-0.08397232402025154
-0.08397232402025154
-0.08677688590291964
-0.09038275118063577
-0.0939886164583519
-0.09599187494597196
-0.09679317834102
-0.09679317834102
-0.097193830038544
-0.09839578513111603
-0.10039904361873613
-0.09959774022368809
-0.09679317834102
-0.09559122324844795
-0.08837949269301569
-0.08357167232272752
-0.0747573349771992
-0.06714495272424294
-0.05913191877376265
-0.05151953652080638
-0.0463110644529942
-0.039900637292609974
-0.03469216522479779
-0.03469216522479779
-0.03268890673717771
-0.029083041459461584
-0.02347391769412539
-0.015861535441169115
-0.0018387260278286178
0.013386038478083923
0.027809499588948433
0.04824273616267317
0.07107988292154198
0.09511898477298283
0.12236330020461579
0.15281282921644088
0.18486496501836203
0.2153144940301871
0.24255880946182007
0.26820051810335693
0.29384222674489385
0.3114709014359505
0.32268914896662293
0.3299008795220552
0.3319041380096752
0.325493710849291
0.31627872180623867
0.30906699125080644
0.2950441818374659
0.2778161588439333
0.2569822705726846
0.23614838230143584
0.21210928044999497
0.18927213369112617
0.1648323801421613
0.1423958850808165
0.11755547983432761
0.09351637798288677
0.07188118631659
0.05024599465029323
0.03221666826171259
0.014187341873131951
-0.004242636212972703
-0.022271962601553345
-0.039499985595085954
-0.05712866028614259
-0.07115146969948308
-0.08357167232272752
-0.09519057155092393
-0.09919708852616407
-0.10440556059397627
-0.10721012247664435
-0.10520686398902429
-0.10360425719892823
-0.10039904361873613
-0.097193830038544
-0.09038275118063577
-0.08517427911282358
-0.07555863837224723
-0.06834690781681498
-0.05953257047128667
-0.054324098403474484
-0.05232083991585441
-0.05071823312575836
-0.05552605349604652
-0.05712866028614259
-0.06434039084157483
-0.06714495272424294
-0.0719527730945311
-0.07956515534748738
-0.08397232402025154
-0.08517427911282358
-0.08797884099549168
-0.08397232402025154
-0.07876385195243936
-0.07235342479205513
-0.06754560442176695
-0.06393973914405082
-0.060734525563858714
-0.0575293119836666
-0.054324098403474484
-0.051920188218330394
-0.05232083991585441
-0.05312214331090244
-0.05592670519357054
-0.058330615378714624
-0.058330615378714624
-0.06434039084157483
-0.06994951460691104
-0.07395603158215117
-0.07796254855739132
-0.08397232402025154
-0.08477362741529958
-0.08517427911282358
-0.08397232402025154
-0.07836320025491533
-0.07315472818710315
-0.07035016630443504
-0.0659429976316709
-0.06193648065643075
-0.05592670519357054
-0.0491156263356623
-0.04510910936042215
-0.03909933389756194
-0.04030128899013398
-0.04270519917527807
-0.04550976105794617
-0.05312214331090244
-0.058330615378714624
-0.0659429976316709
-0.07115146969948308
-0.07555863837224723
-0.07676059346481928
-0.0771612451623433
-0.07676059346481928
-0.0771612451623433
-0.07315472818710315
-0.07155212139700709
-0.068747559514339
-0.06434039084157483
-0.05913191877376265
-0.05552605349604652
-0.05151953652080638
-0.05071823312575836
-0.04951627803318631
-0.05111888482328236
-0.05712866028614259
-0.058330615378714624
-0.060734525563858714
-0.06434039084157483
-0.06514169423662286
-0.06474104253909885
-0.06514169423662286
-0.06474104253909885
-0.06393973914405082
-0.06273778405147878
-0.05913191877376265
-0.05392344670595047
-0.04711236784804223
-0.04510910936042215
-0.039499985595085954
-0.03469216522479779
-0.03429151352727377
-0.03909933389756194
-0.04430780596537413
-0.045910412755470184
-0.05071823312575836
-0.054324098403474484
-0.05953257047128667
-0.06193648065643075
-0.06754560442176695
-0.07075081800195906
-0.07235342479205513
-0.07555863837224723
-0.0719527730945311
-0.07035016630443504
-0.06474104253909885
-0.058330615378714624
-0.05352279500842645
-0.045910412755470184
-0.0435065025703261
-0.0378973788049899
-0.0378973788049899
-0.03829803050251391
-0.041903895780230044
-0.04550976105794617
-0.0491156263356623
-0.050317581428234344
-0.05111888482328236
-0.05392344670595047
-0.05272149161337843
-0.05232083991585441
-0.05151953652080638
-0.04711236784804223
-0.04510910936042215
-0.036294772014893846
-0.03068564824955764
-0.024275221089173415
-0.02026870411393327
-0.01706349053374116
-0.00864980488573686
-0.004643287910496717
-0.0006367709352565752
-0.0010374226327805893
-0.0018387260278286178
-0.005444591305544746
-0.009050456583260874
-0.01345762525602503
-0.01345762525602503
-0.01626218713869313
-0.019467400718885246
-0.01986805241640926
-0.01986805241640926
-0.018666097323837214
-0.013858276953549045
-0.010653063373356931
-0.005444591305544746
0.0005651841573154674
0.0073762630152237095
0.018193858848372095
0.02460428600875632
0.03221666826171259
0.03742514032952477
0.039027747119620836
0.04143165730476492
0.04263361239733696
0.042232960699812944
0.03742514032952477
0.03542188184190471
0.03141536486666456
0.029412106379044494
0.026206892798852376
0.02099842073104019
0.019395813940944136
0.01979646563846815
0.020197117335992165
0.02540558940380435
0.03381927505180865
0.04183230900228893
0.049044039557721186
0.05665642181067746
0.061464242180965634
0.07027857952649394
0.07027857952649394
0.06787466934134985
0.06306684897106168
0.05825902860077352
0.053451208230485346
0.05104729804534126
0.04583882597752907
0.04063035390971689
0.03662383693447675
0.037024488632000765
0.03622318523695273
0.03502123014438069
0.03742514032952477
0.03221666826171259
0.044636870884957026
0.049044039557721186
0.053050556532961334
0.057057073508201474
0.061464242180965634
0.062265545576013666
0.05946098369334556
0.057057073508201474
0.052649904835437314
0.044636870884957026
0.04143165730476492
0.032617319959236606
0.029011454681520478
0.02460428600875632
0.019395813940944136
0.018594510545896108
0.016190600360752025
0.01779320715084808
0.019395813940944136
0.01979646563846815
0.02220037582361224
0.027809499588948433
0.03141536486666456
0.03582253353942872
0.037024488632000765
0.03782579202704879
0.03381927505180865
0.03141536486666456
0.025806241101328366
0.018594510545896108
0.014587993570655966
0.007776914712747723
0.003369746039983567
-0.004643287910496717
-0.007047198095640803
-0.010653063373356931
-0.013858276953549045
-0.015861535441169115
-0.01345762525602503
-0.014659580348597073
-0.013056973558501017
-0.012255670163452989
-0.009451108280784888
-0.008249153188212845
-0.009050456583260874
-0.008249153188212845
-0.009050456583260874
-0.013056973558501017
-0.01706349053374116
-0.022271962601553345
-0.0266791312743175
-0.03148695164460567
-0.03429151352727377
-0.03829803050251391
-0.04030128899013398
-0.039900637292609974
-0.041903895780230044
-0.03829803050251391
-0.033890861829749756
-0.0322882550396537
-0.02828173806441356
-0.024275221089173415
-0.02187131090402933
-0.024275221089173415
-0.027079782971841517
-0.03028499655203363
-0.03308955843470173
-0.040701940687658
-0.0463110644529942
-0.05232083991585441
-0.058330615378714624
-0.05873126707623864
-0.06153582895890673
-0.06474104253909885
-0.06554234593414689
-0.06393973914405082
-0.060333873866334695
-0.056327356891094554
-0.05272149161337843
-0.047513019545566235
-0.04310585087280209
-0.036294772014893846
-0.027079782971841517
-0.01986805241640926
-0.01345762525602503
-0.011855018465928973
-0.010252411675832917
-0.013858276953549045
-0.02026870411393327
-0.02868238976193757
-0.03469216522479779
-0.03909933389756194
-0.04270519917527807
-0.04550976105794617
-0.0491156263356623
-0.047913671243090254
-0.047513019545566235
-0.047913671243090254
-0.045910412755470184
-0.04510910936042215
-0.036294772014893846
-0.03268890673717771
-0.02828173806441356
-0.025877827879269472
-0.026278479576793485
-0.024275221089173415
-0.025477176181745456
-0.025477176181745456
-0.03148695164460567
-0.03469216522479779
-0.03829803050251391
-0.04310585087280209
-0.04550976105794617
-0.04951627803318631
-0.0491156263356623
-0.047513019545566235
-0.04110259238518201
-0.0378973788049899
-0.03148695164460567
-0.02026870411393327
-0.01145436676840496
-0.004643287910496717
0.0053730045276036385
0.006174307922651667
0.011382779990463852
0.014187341873131951
0.013386038478083923
0.012184083385511881
0.005773656225127653
0.0037703977375075815
-0.004242636212972703
-0.01145436676840496
-0.015861535441169115
-0.020669355811457287
-0.02347391769412539
-0.025877827879269472
-0.025076524484221444
-0.02026870411393327
-0.01626218713869313
-0.011053715070880946
-0.007047198095640803
-0.0026400294228766464
0.0005651841573154674
0.005773656225127653
0.008177566410271737
0.009780173200367795
0.011783431687987865
0.01018082489789181
0.007776914712747723
0.0053730045276036385
-0.0030406811204006607
-0.0058452430030687605
-0.007447849793164817
-0.012255670163452989
-0.015460883743645102
-0.01345762525602503
-0.013056973558501017
-0.008249153188212845
-0.006245894700592774
-0.0014380743303046037
0.005773656225127653
0.011382779990463852
0.018193858848372095
0.02420363431123231
0.03021340977409252
0.03141536486666456
0.03101471316914055
0.025806241101328366
0.02220037582361224
0.01779320715084808
0.013786690175607937
0.006975611317699695
0.007776914712747723
0.0073762630152237095
0.00937952150284378
0.010581476595415822
0.014187341873131951
0.013386038478083923
0.011783431687987865
0.014187341873131951
0.017392555453324066
0.02099842073104019
0.02540558940380435
0.03141536486666456
0.032617319959236606
0.03141536486666456
0.03101471316914055
0.02460428600875632
0.02460428600875632
0.01899516224342012
0.017392555453324066
0.012184083385511881
0.01018082489789181
0.006975611317699695
0.005773656225127653
0.007776914712747723
0.00937952150284378
0.013786690175607937
0.017392555453324066
0.01899516224342012
0.023802982613708293
0.02460428600875632
0.02660754449637639
0.027809499588948433
0.026206892798852376
0.025806241101328366
0.022601027521136248
0.018594510545896108
0.018594510545896108
0.019395813940944136
0.02220037582361224
0.02059776903351618
0.02059776903351618
0.018594510545896108
0.016190600360752025
0.014187341873131951
0.012584735083035894
0.014988645268179978
0.016591252058276038
0.018594510545896108
0.023001679218660264
0.02740884789142442
0.03021340977409252
0.03421992674933266
0.037024488632000765
0.0382264437245728
0.039027747119620836
0.0382264437245728
0.03662383693447675
0.032617319959236606
0.03181601656418858
0.02740884789142442
0.02460428600875632
0.020197117335992165
0.02059776903351618
0.018594510545896108
0.019395813940944136
0.018594510545896108
0.021399072428564207
0.02460428600875632
0.029011454681520478
0.03181601656418858
0.03221666826171259
0.03542188184190471
0.03662383693447675
0.03742514032952477
0.03782579202704879
0.03421992674933266
0.03141536486666456
0.026206892798852376
0.01979646563846815
0.010982128292939838
0.005773656225127653
0.0021677909474115244
0.0005651841573154674
-0.002239377725352632
-0.0018387260278286178
-0.0014380743303046037
0.003369746039983567
0.006574959620175681
0.011382779990463852
0.018193858848372095
0.02340233091618428
0.027809499588948433
0.03301797165676062
0.03582253353942872
0.03742514032952477
0.03662383693447675
0.03502123014438069
0.03542188184190471
0.03221666826171259
0.028610802983996465
0.023802982613708293
0.017392555453324066
0.010982128292939838
0.004972352830079624
-0.0010374226327805893
-0.005043939608020732
-0.006245894700592774
-0.006245894700592774
0.0037703977375075815
0.01018082489789181
0.018594510545896108
0.022601027521136248
0.027809499588948433
0.03141536486666456
0.03181601656418858
0.027809499588948433
0.02220037582361224
0.013386038478083923
0.01018082489789181
0.004571701132555611
0.001366487552363496
-0.004242636212972703
-0.005043939608020732
-0.005043939608020732
-0.004242636212972703
-0.0026400294228766464
0.0005651841573154674
0.0021677909474115244
0.0053730045276036385
0.01018082489789181
0.013786690175607937
0.018193858848372095
0.018594510545896108
0.018594510545896108
0.018594510545896108
0.016591252058276038
0.010982128292939838
0.004972352830079624
-0.0018387260278286178
-0.009050456583260874
-0.01345762525602503
-0.01706349053374116
-0.019467400718885246
-0.0238745693916494
-0.0266791312743175
-0.027480434669365526
-0.02868238976193757
-0.02187131090402933
-0.015060232046121088
-0.009050456583260874
-0.0018387260278286178
0.0037703977375075815
0.007776914712747723
0.014587993570655966
0.014988645268179978
0.014587993570655966
0.010581476595415822
0.0053730045276036385
0.0005651841573154674
-0.0058452430030687605
-0.009451108280784888
-0.014659580348597073
-0.019467400718885246
-0.019467400718885246
-0.01906674902136123
-0.015060232046121088
-0.012255670163452989
-0.006245894700592774
0.00016453245979145326
0.006574959620175681
0.01298538678055991
0.018193858848372095
0.01979646563846815
0.02099842073104019
0.02220037582361224
0.018594510545896108
0.014988645268179978
0.012184083385511881
0.004972352830079624
-0.0010374226327805893
-0.0058452430030687605
-0.01145436676840496
-0.015460883743645102
-0.02026870411393327
-0.024275221089173415
-0.02868238976193757
-0.027480434669365526
-0.0238745693916494
-0.01706349053374116
-0.011053715070880946
-0.0014380743303046037
0.005773656225127653
0.012184083385511881
0.018193858848372095
0.018594510545896108
0.01979646563846815
0.019395813940944136
0.018193858848372095
0.014988645268179978
0.011382779990463852
0.005773656225127653
0.0037703977375075815
0.0009658358548394817
0.001366487552363496
0.003369746039983567
0.005773656225127653
0.010581476595415822
0.016591252058276038
0.02460428600875632
0.03141536486666456
0.039027747119620836
0.048643387860197174
0.057057073508201474
0.062265545576013666
0.0662720625512538
0.06306684897106168
0.05986163539086957
0.05665642181067746
0.053050556532961334
0.04704078107010112
0.046640129372577104
0.04704078107010112
0.04704078107010112
0.05024599465029323
0.053451208230485346
0.06106359048344162
0.06947727613144591
0.08189747875469036
0.0943176813779348
0.10834049079127529
0.12236330020461579
0.1363861096179563
0.14800500884615272
0.1536141326114889
0.15201152582139285
0.1419952333832925
0.12396590699471184
0.10553592890860719
0.08470204063735845
0.06947727613144591
0.0550538150205814
0.04183230900228893
0.02540558940380435
0.009780173200367795
-0.007447849793164817
-0.02467587278669743
-0.0378973788049899
-0.04550976105794617
-0.05552605349604652
-0.06434039084157483
-0.07235342479205513
-0.08156841383510745
-0.09238600966825583
-0.10360425719892823
-0.11602445982217267
-0.13164987602560924
-0.14647398883399776
-0.1616987533399103
-0.17932742803096693
-0.19294958574678342
-0.20617109176507586
-0.2181906426907963
-0.22500172154870454
-0.23141214870908877
-0.23501801398680489
-0.23902453096204507
-0.24182909284471316
-0.24343169963480918
-0.2430310479372852
-0.24343169963480918
-0.24423300302985723
-0.24383235133233322
-0.23982583435709307
-0.237822575869473
-0.23662062077690096
-0.237421924171949
-0.23862387926452103
-0.24583560981995328
-0.25264668867786155
-0.26266298111596187
-0.26947405997387014
-0.27628513883177835
-0.28109295920206656
-0.28189426259711453
-0.27908970071444644
-0.2746825320416823
-0.26947405997387014
-0.2598584192332938
-0.2502427784927174
-0.23982583435709307
-0.23141214870908877
-0.22259781136356047
-0.21458477741308019
-0.20857500195021997
-0.20577044006755188
-0.20536978837002784
-0.20777369855517192
-0.20897565364774395
-0.209776957042792
-0.21218086722793608
-0.21218086722793608
-0.21218086722793608
-0.21218086722793608
-0.21057826043784003
-0.20577044006755188
-0.2041678332774558
-0.2041678332774558
-0.2041678332774558
-0.20657174346259988
-0.20657174346259988
-0.20336652988240778
-0.2017639230923117
-0.19936001290716762
-0.19775740611707157
-0.19936001290716762
-0.20336652988240778
-0.20857500195021997
-0.21578673250565222
-0.22259781136356047
-0.22540237324622855
-0.2290082385239447
-0.23181280040661278
-0.2346173622892809
-0.237822575869473
-0.23942518265956905
-0.24182909284471316
-0.24503430642490526
-0.24423300302985723
-0.2410277894496651
-0.23862387926452103
-0.23702127247442498
-0.2342167105917569
-0.23101149701156476
-0.2290082385239447
-0.2266043283388006
-0.22740563173384865
-0.2201939011784164
-0.23381605889423285
-0.237822575869473
-0.24182909284471316
-0.2494414750976694
-0.2510440818877655
-0.2546499471654816
-0.2570538573506257
-0.2546499471654816
-0.25224603698033754
-0.25184538528281347
-0.24984212679519344
-0.24263039623976118
-0.23141214870908877
-0.22259781136356047
-0.20817435025269596
-0.19655545102449953
-0.18333394500620706
-0.1709137423829626
-0.16250005673495832
-0.1560896295745741
-0.15007985411171387
-0.14366942695132967
-0.13525574130332535
-0.1340537862107533
-0.12964661753798917
-0.12604075226027303
-0.12043162849493683
-0.11041533605683648
-0.09679317834102
-0.08196906553263146
-0.06273778405147878
-0.04390715426785011
-0.025477176181745456
-0.003441332817924675
0.021399072428564207
0.053050556532961334
0.08510269233488248
0.11595287304423157
0.14680305375358066
0.17765323446292977
0.2073014600797068
0.2313405619311477
0.24977054001725232
0.2641940011281168
0.2778161588439333
0.29063701316470175
0.3026565640904222
0.31627872180623867
0.32909957612700713
0.3395165202626315
0.3499334643982559
0.3575458466512122
0.3611517119289283
0.35794649834873615
0.35313867797844795
0.3419204304477756
0.3274969693369111
0.3078650361582344
0.2806207207266014
0.24456206794944016
0.21050667365989892
0.1752493242777857
0.14680305375358066
0.12076069341451974
0.09912550174822297
0.08229813045221436
0.0690766244339219
0.05585511841562943
0.048643387860197174
0.04423621918743302
0.042232960699812944
0.04183230900228893
0.04784208446514915
0.051447949742865276
0.05986163539086957
0.0690766244339219
0.07628835498935416
0.08269878214973839
0.0830994338472624
0.08269878214973839
0.08269878214973839
0.08189747875469036
0.07789096177945022
0.0742850965017341
0.07188118631659
0.06787466934134985
0.06947727613144591
0.06987792782896993
0.07188118631659
0.07628835498935416
0.08350008554478641
0.08950986100764662
0.09672159156307888
0.1027313670259391
0.10633723230365523
0.10793983909375128
0.10834049079127529
0.10793983909375128
0.10152941193336706
0.09592028816803085
0.08550334403240649
0.07909291687202226
0.07107988292154198
0.06867597273639789
0.061464242180965634
0.059060331995821544
0.058659680298297524
0.05825902860077352
0.06306684897106168
0.07067923122401797
0.0774903100819262
0.08430138893983445
0.09071181610021867
0.099926805143271
0.10593658060613122
0.1111450526739434
0.11555222134670755
0.11555222134670755
0.1167541764392796
0.11435026625413551
0.10874114248879932
0.10553592890860719
0.09912550174822297
0.09551963647050683
0.09271507458783874
0.0919137711927907
0.0915131194952667
0.0919137711927907
0.09551963647050683
0.09832419835317494
0.1031320187234631
0.10753918739622727
0.11274765946403945
0.1199593900194717
0.12837307566747602
0.13518415452538424
0.14079327829072047
0.14119392998824445
0.13999197489567242
0.13798871640805235
0.13037633415509609
0.12116134511204374
0.1111450526739434
0.10433397381603515
0.09632093986555487
0.0919137711927907
0.0919137711927907
0.09511898477298283
0.09832419835317494
0.10553592890860719
0.11354896285908748
0.12116134511204374
0.12797242396995198
0.1339821994328122
0.13798871640805235
0.14159458168576847
0.14439914356843658
0.1447997952659606
0.14640240205605665
0.14319718847586455
0.13999197489567242
0.13478350282786022
0.12837307566747602
0.12156199680956777
0.1167541764392796
0.1111450526739434
0.10633723230365523
0.10473462551355917
0.1031320187234631
0.10633723230365523
0.10874114248879932
0.11314831116156347
0.11435026625413551
0.11755547983432761
0.12196264850709178
0.12717112057490398
0.13197894094519214
0.1335815477352882
0.1335815477352882
0.1339821994328122
0.13197894094519214
0.12997568245757207
0.12717112057490398
0.12316460359966383
0.12076069341451974
0.11595287304423157
0.11435026625413551
0.11555222134670755
0.1199593900194717
0.1251678620872839
0.13197894094519214
0.1391906715006244
0.14720370545110467
0.1536141326114889
0.16042521146939714
0.1656336835372093
0.17204411069759357
0.17244476239511758
0.1752493242777857
0.1752493242777857
0.17444802088273764
0.17044150390749752
0.16363042504958927
0.15762064958672906
0.15281282921644088
0.14680305375358066
0.14640240205605665
0.14319718847586455
0.14319718847586455
0.14560109866100862
0.14680305375358066
0.1484056605436767
0.1512102224263448
0.1536141326114889
0.1592232563768251
0.16242846995701724
0.1672362903273054
0.17004085220997348
0.16883889711740144
0.1656336835372093
0.16242846995701724
0.15441543600653693
0.14680305375358066
0.1427965367783405
0.14159458168576847
0.14079327829072047
0.14159458168576847
0.14439914356843658
0.14680305375358066
0.14880631224120072
0.15762064958672906
0.16242846995701724
0.1696402005124495
0.1752493242777857
0.18085844804312187
0.18646757180845808
0.1900734370861742
0.1904740887836982
0.18887148199360215
0.18566626841341002
0.1816597514381699
0.1752493242777857
0.17004085220997348
0.1648323801421613
0.16002455977187313
0.1596239080743491
0.15762064958672906
0.15601804279663298
0.15601804279663298
0.15561739109910896
0.15281282921644088
0.15281282921644088
0.1512102224263448
0.15281282921644088
0.15401478430901291
0.1592232563768251
0.1588226046793011
0.1592232563768251
0.16162716656196918
0.16162716656196918
0.16082586316692116
0.1596239080743491
0.1596239080743491
0.1592232563768251
0.156819346191681
0.15401478430901291
0.14960761563624875
0.14920696393872476
0.14760435714862868
0.14680305375358066
0.1423958850808165
0.1395913231981484
0.13598545792043226
0.13438285113033624
0.1335815477352882
0.1339821994328122
0.1339821994328122
0.13438285113033624
0.1311776375501441
0.128773727365
0.12316460359966383
0.1199593900194717
0.11354896285908748
0.10793983909375128
0.10713853569870325
0.10553592890860719
0.10433397381603515
0.10834049079127529
0.10914179418632332
0.11354896285908748
0.11875743492689966
0.12236330020461579
0.1255685137848079
0.12957503076004806
0.13518415452538424
0.13999197489567242
0.14159458168576847
0.14119392998824445
0.14159458168576847
0.1391906715006244
0.13838936810557637
0.1339821994328122
0.12717112057490398
0.11755547983432761
0.10994309758137136
0.10112876023584304
0.09592028816803085
0.09511898477298283
0.09471833307545881
0.09471833307545881
0.09912550174822297
0.10633723230365523
0.11274765946403945
0.11555222134670755
0.1199593900194717
0.11755547983432761
0.11755547983432761
0.11755547983432761
0.11435026625413551
0.1111450526739434
0.10954244588384734
0.10834049079127529
0.10793983909375128
0.10834049079127529
0.11034374927889536
0.11234700776651545
0.11074440097641938
0.10793983909375128
0.10433397381603515
0.09952615344574697
0.09551963647050683
0.09031116440269465
0.08790725421755058
0.08870855761259859
0.09111246779774268
0.099926805143271
0.1111450526739434
0.12116134511204374
0.12797242396995198
0.13197894094519214
0.1339821994328122
0.1311776375501441
0.12717112057490398
0.12116134511204374
0.11595287304423157
0.10834049079127529
0.10233071532841509
0.09592028816803085
0.09271507458783874
0.09031116440269465
0.08870855761259859
0.0919137711927907
0.0943176813779348
0.09832419835317494
0.1031320187234631
0.10753918739622727
0.10874114248879932
0.10793983909375128
0.1027313670259391
0.09832419835317494
0.08830790591507458
0.07909291687202226
0.06987792782896993
0.057057073508201474
0.04784208446514915
0.04143165730476492
0.037024488632000765
0.03421992674933266
0.03381927505180865
0.03221666826171259
0.03421992674933266
0.04423621918743302
0.042232960699812944
0.045037522582481046
0.052649904835437314
0.05665642181067746
0.05825902860077352
0.06306684897106168
0.06306684897106168
0.06707336594630184
0.05986163539086957
0.055454466718105416
0.046640129372577104
0.04022970221219288
0.03421992674933266
0.029412106379044494
0.02460428600875632
0.01899516224342012
0.01578994866322801
0.013386038478083923
0.014988645268179978
0.020197117335992165
0.026206892798852376
0.03221666826171259
0.03742514032952477
0.04183230900228893
0.04423621918743302
0.045037522582481046
0.044636870884957026
0.04063035390971689
0.03582253353942872
0.03141536486666456
0.025806241101328366
0.018594510545896108
0.016591252058276038
0.011783431687987865
0.005773656225127653
-0.0006367709352565752
-0.00864980488573686
-0.01345762525602503
-0.015861535441169115
-0.015460883743645102
-0.015060232046121088
-0.007447849793164817
0.0005651841573154674
0.006174307922651667
0.012184083385511881
0.016591252058276038
0.021399072428564207
0.025806241101328366
0.026206892798852376
0.025004937706280334
0.01979646563846815
0.01899516224342012
0.013386038478083923
0.009780173200367795
0.005773656225127653
0.0037703977375075815
0.004972352830079624
0.006174307922651667
0.00937952150284378
0.016591252058276038
0.02059776903351618
0.029011454681520478
0.03542188184190471
0.04063035390971689
0.04704078107010112
0.049044039557721186
0.052649904835437314
0.053451208230485346
0.05104729804534126
0.04824273616267317
0.04383556748990901
0.03742514032952477
0.030614061471616535
0.02059776903351618
0.01699190375580005
0.012584735083035894
0.014187341873131951
0.017392555453324066
0.01979646563846815
0.023001679218660264
0.027809499588948433
0.03141536486666456
0.03582253353942872
0.042232960699812944
0.04543817428000506
0.04984534295276922
0.053050556532961334
0.05425251162553338
0.053451208230485346
0.05104729804534126
0.048643387860197174
0.04423621918743302
0.03782579202704879
0.03141536486666456
0.02540558940380435
0.01979646563846815
0.012184083385511881
0.006174307922651667
-0.00023611923773256095
-0.006646546398116788
-0.010653063373356931
-0.01345762525602503
-0.017464142231265172
-0.01986805241640926
-0.019467400718885246
-0.02347391769412539
-0.0322882550396537
-0.039499985595085954
-0.05111888482328236
-0.06153582895890673
-0.06914821121186301
-0.07635994176729527
-0.0799658070450114
-0.08277036892767949
-0.08357167232272752
-0.08397232402025154
-0.0799658070450114
-0.08196906553263146
-0.08317102062520351
-0.08637623420539561
-0.08918079608806372
-0.08637623420539561
-0.08357167232272752
-0.08236971723015549
-0.08036645874253541
-0.07876385195243936
-0.07876385195243936
-0.08196906553263146
-0.08277036892767949
-0.08277036892767949
-0.08477362741529958
-0.08557493081034759
-0.08837949269301569
-0.08637623420539561
-0.08517427911282358
-0.08757818929796767
-0.08757818929796767
-0.08477362741529958
-0.08196906553263146
-0.0771612451623433
-0.07115146969948308
-0.06353908744652681
-0.05712866028614259
-0.04951627803318631
-0.041903895780230044
-0.039499985595085954
-0.0378973788049899
-0.037496727107465884
-0.03429151352727377
-0.031887603342129686
-0.03308955843470173
-0.03429151352727377
-0.03669542371241786
-0.040701940687658
-0.04550976105794617
-0.04510910936042215
-0.04310585087280209
-0.041903895780230044
-0.04030128899013398
-0.036294772014893846
-0.03028499655203363
-0.0238745693916494
-0.01986805241640926
-0.018666097323837214
-0.017864793928789188
-0.015460883743645102
-0.01706349053374116
-0.01706349053374116
-0.007447849793164817
-0.020669355811457287
-0.027881086366889542
-0.03429151352727377
-0.03829803050251391
-0.04390715426785011
-0.05151953652080638
-0.058330615378714624
-0.060333873866334695
-0.06353908744652681
-0.06514169423662286
-0.06273778405147878
-0.058330615378714624
-0.05392344670595047
-0.04831432294061427
-0.041903895780230044
-0.03909933389756194
-0.03308955843470173
-0.027480434669365526
-0.022271962601553345
-0.018666097323837214
-0.01345762525602503
-0.009851759978308904
-0.009851759978308904
-0.010653063373356931
-0.013056973558501017
-0.015460883743645102
-0.01986805241640926
-0.019467400718885246
-0.01986805241640926
-0.017864793928789188
-0.01345762525602503
-0.00784850149068883
-0.0058452430030687605
0.0005651841573154674
0.008578218107795752
0.014988645268179978
0.018594510545896108
0.01979646563846815
0.018594510545896108
0.014988645268179978
0.014187341873131951
0.0073762630152237095
0.0009658358548394817
-0.0014380743303046037
-0.004643287910496717
-0.00784850149068883
-0.008249153188212845
-0.009851759978308904
-0.007047198095640803
-0.0014380743303046037
0.004571701132555611
0.00937952150284378
0.016190600360752025
0.01899516224342012
0.027809499588948433
0.03141536486666456
0.03582253353942872
0.0382264437245728
0.04063035390971689
0.03782579202704879
0.03381927505180865
0.03381927505180865
0.030614061471616535
0.027008196193900408
0.02460428600875632
0.027809499588948433
0.03141536486666456
0.0382264437245728
0.049044039557721186
0.06266619727353767
0.07829161347697423
0.0943176813779348
0.10633723230365523
0.11555222134670755
0.12236330020461579
0.12717112057490398
0.12476721038975987
0.12116134511204374
0.11435026625413551
0.10473462551355917
0.09351637798288677
0.08470204063735845
0.0746857481992581
0.06266619727353767
0.05425251162553338
0.048643387860197174
0.04543817428000506
0.048643387860197174
0.053050556532961334
0.05986163539086957
0.06947727613144591
0.0774903100819262
0.08630464742745451
0.0919137711927907
0.09912550174822297
0.10473462551355917
0.10834049079127529
0.10834049079127529
0.10593658060613122
0.10112876023584304
0.09551963647050683
0.09351637798288677
0.08910920931012262
0.08870855761259859
0.08910920931012262
0.0919137711927907
0.09551963647050683
0.10112876023584304
0.10834049079127529
0.11435026625413551
0.11835678322937565
0.12196264850709178
0.1255685137848079
0.12997568245757207
0.13678676131548032
0.14319718847586455
0.14760435714862868
0.14920696393872476
0.14960761563624875
0.14640240205605665
0.14079327829072047
0.1335815477352882
0.12236330020461579
0.10914179418632332
0.09672159156307888
0.09271507458783874
0.08950986100764662
0.08950986100764662
0.09271507458783874
0.09551963647050683
0.10393332211851114
0.11314831116156347
0.12116134511204374
0.12997568245757207
0.13999197489567242
0.14560109866100862
0.14680305375358066
0.14680305375358066
0.14319718847586455
0.13798871640805235
0.12957503076004806
0.12316460359966383
0.11755547983432761
0.11034374927889536
0.10433397381603515
0.09792354665565094
0.09311572628536274
0.09031116440269465
0.08991051270517064
0.09551963647050683
0.09632093986555487
0.10032745684079501
0.10473462551355917
0.11034374927889536
0.11354896285908748
0.11274765946403945
0.11274765946403945
0.1111450526739434
0.10753918739622727
0.10433397381603515
0.09592028816803085
0.09111246779774268
0.08830790591507458
0.08390073724231042
0.0802948719645943
0.07348379310668607
0.06987792782896993
0.06306684897106168
0.061864893878489646
0.06306684897106168
0.06306684897106168
0.07107988292154198
0.07548705159430613
0.08269878214973839
0.08870855761259859
0.0919137711927907
0.09592028816803085
0.09792354665565094
0.09912550174822297
0.09832419835317494
0.09551963647050683
0.09031116440269465
0.08790725421755058
0.0830994338472624
0.08149682705716635
0.07869226517449823
0.0774903100819262
0.07548705159430613
0.0750863998967821
0.0742850965017341
0.0750863998967821
0.0750863998967821
0.0774903100819262
0.08269878214973839
0.08550334403240649
0.08670529912497853
0.08510269233488248
0.08149682705716635
0.0742850965017341
0.0662720625512538
0.05585511841562943
0.04543817428000506
0.03782579202704879
0.03181601656418858
0.027809499588948433
0.023001679218660264
0.019395813940944136
0.020197117335992165
0.02059776903351618
0.02059776903351618
0.023001679218660264
0.023802982613708293
0.025806241101328366
0.02660754449637639
0.029412106379044494
0.03101471316914055
0.03021340977409252
0.029412106379044494
0.027008196193900408
0.021399072428564207
0.01578994866322801
0.006574959620175681
0.0021677909474115244
-0.007047198095640803
-0.012255670163452989
-0.015861535441169115
-0.015460883743645102
-0.011053715070880946
-0.0058452430030687605
-0.00023611923773256095
0.006574959620175681
0.012184083385511881
0.018594510545896108
0.025004937706280334
0.03021340977409252
0.03141536486666456
0.03141536486666456
0.03101471316914055
0.02540558940380435
0.020197117335992165
0.014587993570655966
0.009780173200367795
0.0053730045276036385
0.0021677909474115244
0.0021677909474115244
0.004972352830079624
0.006975611317699695
0.019395813940944136
0.03421992674933266
0.05625577011315344
0.08069552366211832
0.10473462551355917
0.13278024434024016
0.1592232563768251
0.18486496501836203
0.21050667365989892
0.23294316872124374
0.2521744502023964
0.26820051810335693
0.28743179958450965
0.298650047115182
0.30666308106566237
0.3114709014359505
0.3146761150161426
0.31427546331861866
0.3134741599235706
0.3086663395532824
0.30105395730032614
0.29223961995479786
0.2818226758191734
0.2661972596157369
0.25337640529496847
0.23614838230143584
0.21491384233266309
0.18927213369112617
0.16082586316692116
0.13438285113033624
0.10874114248879932
0.08229813045221436
0.053050556532961334
0.02460428600875632
-0.00023611923773256095
-0.024275221089173415
-0.04470845766289814
-0.062337132353954765
-0.07275407648957913
-0.08397232402025154
-0.08837949269301569
-0.09038275118063577
-0.09038275118063577
-0.09038275118063577
-0.08677688590291964
-0.08397232402025154
-0.0771612451623433
-0.0719527730945311
-0.068747559514339
-0.06514169423662286
-0.06474104253909885
-0.06834690781681498
-0.07035016630443504
-0.07315472818710315
-0.07876385195243936
-0.08317102062520351
-0.08757818929796767
-0.09238600966825583
-0.09438926815587591
-0.0947899198533999
-0.09799513343359204
-0.09839578513111603
-0.10120034701378415
-0.09839578513111603
-0.09358796476082787
-0.08757818929796767
-0.08557493081034759
-0.08196906553263146
-0.07956515534748738
-0.07756189685986732
-0.07836320025491533
-0.07956515534748738
-0.08156841383510745
-0.08196906553263146
-0.08437297571777555
-0.08477362741529958
-0.08517427911282358
-0.08597558250787161
-0.08998209948311174
-0.09238600966825583
-0.09118405457568379
-0.09118405457568379
-0.08958144778558774
-0.08397232402025154
-0.07635994176729527
-0.07155212139700709
-0.06714495272424294
-0.062337132353954765
-0.05913191877376265
-0.05993322216881068
-0.06113517726138273
-0.06434039084157483
-0.07035016630443504
-0.07315472818710315
-0.08437297571777555
-0.08557493081034759
-0.09078340287815978
-0.0947899198533999
-0.09679317834102
-0.09919708852616407
-0.09759448173606802
-0.09679317834102
-0.09639252664349597
-0.09238600966825583
-0.08797884099549168
-0.08477362741529958
-0.07676059346481928
-0.07235342479205513
-0.06714495272424294
-0.05993322216881068
-0.058330615378714624
-0.0547247501009985
-0.056327356891094554
-0.05873126707623864
-0.06273778405147878
-0.068747559514339
-0.0659429976316709
-0.06954886290938703
-0.06714495272424294
-0.06674430102671892
-0.06634364932919491
-0.06474104253909885
-0.060333873866334695
-0.05712866028614259
-0.05111888482328236
-0.04550976105794617
-0.039499985595085954
-0.03268890673717771
-0.024275221089173415
-0.020669355811457287
-0.020669355811457287
-0.021470659206505316
-0.026278479576793485
-0.031887603342129686
-0.033890861829749756
-0.041503244082706024
-0.046711716150518216
-0.05232083991585441
-0.058330615378714624
-0.058330615378714624
-0.058330615378714624
-0.0575293119836666
-0.05272149161337843
-0.0435065025703261
-0.035894120317369826
-0.026278479576793485
-0.017464142231265172
-0.007447849793164817
-0.0010374226327805893
0.006174307922651667
0.014587993570655966
0.01899516224342012
0.023802982613708293
0.02540558940380435
0.022601027521136248
0.01979646563846815
0.018594510545896108
0.013386038478083923
0.009780173200367795
0.006174307922651667
0.005773656225127653
0.0053730045276036385
0.008578218107795752
0.010581476595415822
0.014587993570655966
0.018594510545896108
0.029011454681520478
0.03341862335428464
0.039027747119620836
0.04543817428000506
0.046640129372577104
0.04704078107010112
0.04704078107010112
0.04704078107010112
0.04583882597752907
0.04543817428000506
0.04383556748990901
0.04383556748990901
0.04183230900228893
0.04063035390971689
0.04383556748990901
0.04423621918743302
0.04423621918743302
0.04704078107010112
0.053451208230485346
0.062265545576013666
0.07027857952649394
0.07869226517449823
0.08269878214973839
0.08710595082250254
0.08910920931012262
0.08870855761259859
0.08830790591507458
0.08470204063735845
0.08229813045221436
0.07829161347697423
0.07027857952649394
0.06747401764382585
0.06266619727353767
0.062265545576013666
0.06747401764382585
0.06947727613144591
0.07188118631659
0.08069552366211832
0.08950986100764662
0.10112876023584304
0.11354896285908748
0.12076069341451974
0.12636981717985593
0.13237959264271615
0.1339821994328122
0.13438285113033624
0.13037633415509609
0.12396590699471184
0.11835678322937565
0.11274765946403945
0.10834049079127529
0.10793983909375128
0.10233071532841509
0.10072810853831903
0.09952615344574697
0.10193006363089106
0.10713853569870325
0.10874114248879932
0.11435026625413551
0.11875743492689966
0.12316460359966383
0.12717112057490398
0.13037633415509609
0.13157828924766812
0.12957503076004806
0.12396590699471184
0.11915808662442368
0.11354896285908748
0.10874114248879932
0.10633723230365523
0.1031320187234631
0.09912550174822297
0.09471833307545881
0.08870855761259859
0.08350008554478641
0.08069552366211832
0.0774903100819262
0.0774903100819262
0.0802948719645943
0.07869226517449823
0.0774903100819262
0.08149682705716635
0.0830994338472624
0.08710595082250254
0.08870855761259859
0.08950986100764662
0.08710595082250254
0.08229813045221436
0.07588770329183014
0.06947727613144591
0.05986163539086957
0.0550538150205814
0.05024599465029323
0.046640129372577104
0.04423621918743302
0.04383556748990901
0.043034264094860976
0.04423621918743302
0.04583882597752907
0.04784208446514915
0.05024599465029323
0.05184860144038929
0.0550538150205814
0.0550538150205814
0.05585511841562943
0.0522492531379133
0.048643387860197174
0.04343491579238499
0.0382264437245728
0.03301797165676062
0.03021340977409252
0.026206892798852376
0.021399072428564207
0.019395813940944136
0.01578994866322801
0.016190600360752025
0.01899516224342012
0.02099842073104019
0.02460428600875632
0.02460428600875632
0.03021340977409252
0.03141536486666456
0.032617319959236606
0.03181601656418858
0.026206892798852376
0.020197117335992165
0.010982128292939838
0.004571701132555611
-0.007047198095640803
-0.01626218713869313
-0.02828173806441356
-0.03829803050251391
-0.04550976105794617
-0.05312214331090244
-0.05873126707623864
-0.06393973914405082
-0.06393973914405082
-0.060734525563858714
-0.05873126707623864
-0.054324098403474484
-0.05111888482328236
-0.045910412755470184
-0.04270519917527807
-0.0350928169223218
-0.03148695164460567
-0.0266791312743175
-0.02828173806441356
-0.031887603342129686
-0.033490210132225744
-0.035493468619845814
-0.041903895780230044
-0.0491156263356623
-0.05232083991585441
-0.058330615378714624
-0.06193648065643075
-0.06674430102671892
-0.068747559514339
-0.06994951460691104
-0.068747559514339
-0.06754560442176695
-0.06474104253909885
-0.06273778405147878
-0.05873126707623864
-0.056327356891094554
-0.05232083991585441
-0.0463110644529942
-0.04470845766289814
-0.04310585087280209
-0.04270519917527807
-0.047913671243090254
-0.05151953652080638
-0.058330615378714624
-0.06434039084157483
-0.06914821121186301
-0.07515798667472322
-0.07756189685986732
-0.0799658070450114
-0.08397232402025154
-0.08116776213758345
-0.08076711044005942
-0.07956515534748738
-0.07676059346481928
-0.07315472818710315
-0.07235342479205513
-0.07115146969948308
-0.0719527730945311
-0.07155212139700709
-0.0719527730945311
-0.0747573349771992
-0.07635994176729527
-0.08196906553263146
-0.08477362741529958
-0.09118405457568379
-0.0947899198533999
-0.09879643682864006
-0.10079969531626012
-0.09959774022368809
-0.097193830038544
-0.09038275118063577
-0.08597558250787161
-0.07836320025491533
-0.07155212139700709
-0.06474104253909885
-0.05953257047128667
-0.0575293119836666
-0.05512540179852251
-0.05712866028614259
-0.05873126707623864
-0.0659429976316709
-0.07115146969948308
-0.07756189685986732
-0.08317102062520351
-0.08757818929796767
-0.08998209948311174
-0.09038275118063577
-0.09038275118063577
-0.08437297571777555
-0.08357167232272752
-0.0747573349771992
-0.06954886290938703
-0.0631384357490028
-0.05392344670595047
-0.050317581428234344
-0.045910412755470184
-0.04550976105794617
-0.0435065025703261
-0.04430780596537413
-0.046711716150518216
-0.05151953652080638
-0.05552605349604652
-0.05953257047128667
-0.06514169423662286
-0.07395603158215117
-0.08156841383510745
-0.08797884099549168
-0.09078340287815978
-0.09038275118063577
-0.08837949269301569
-0.08196906553263146
-0.07595929006977126
-0.07115146969948308
-0.05873126707623864
-0.047513019545566235
-0.039499985595085954
-0.03148695164460567
-0.0266791312743175
-0.029884344854509616
-0.03268890673717771
-0.039900637292609974
-0.047513019545566235
-0.05672800858861857
-0.06273778405147878
-0.06634364932919491
-0.06834690781681498
-0.06994951460691104
-0.06994951460691104
-0.06714495272424294
-0.06754560442176695
-0.06113517726138273
-0.05552605349604652
-0.0463110644529942
-0.041503244082706024
-0.033490210132225744
-0.03068564824955764
-0.025076524484221444
-0.0238745693916494
-0.024275221089173415
-0.0238745693916494
-0.027881086366889542
-0.03148695164460567
-0.037096075409941864
-0.039900637292609974
-0.04550976105794617
-0.04550976105794617
-0.04831432294061427
-0.05071823312575836
-0.054324098403474484
-0.058330615378714624
-0.05953257047128667
-0.06113517726138273
-0.060734525563858714
-0.060734525563858714
-0.05953257047128667
-0.05873126707623864
-0.058330615378714624
-0.057929963681190605
-0.057929963681190605
-0.058330615378714624
-0.05913191877376265
-0.06113517726138273
-0.06474104253909885
-0.07075081800195906
-0.07635994176729527
-0.07756189685986732
-0.08196906553263146
-0.08397232402025154
-0.08397232402025154
-0.07836320025491533
-0.07756189685986732
-0.07836320025491533
-0.07916450364996336
-0.08397232402025154
-0.08837949269301569
-0.09238600966825583
-0.09679317834102
-0.10560751568654832
-0.11041533605683648
-0.11842837000731676
-0.1196303250998888
-0.1224348869825569
-0.12123293188998487
-0.12203423528503289
-0.12043162849493683
-0.11802771830979274
-0.11602445982217267
-0.10961403266178844
-0.1084120775692164
-0.1028029538038802
-0.09759448173606802
-0.09198535797073182
-0.08797884099549168
-0.08397232402025154
-0.08076711044005942
-0.08236971723015549
-0.08477362741529958
-0.08677688590291964
-0.08998209948311174
-0.09278666136577984
-0.097193830038544
-0.10881272926674042
-0.11362054963702858
-0.11802771830979274
-0.1224348869825569
-0.125239448865225
-0.12764335905036908
-0.1284446624454171
-0.12323619037760493
-0.12203423528503289
-0.11402120133455261
-0.10961403266178844
-0.10600816738407232
-0.09799513343359204
-0.0947899198533999
-0.08597558250787161
-0.08236971723015549
-0.08076711044005942
-0.07916450364996336
-0.0799658070450114
-0.0799658070450114
-0.08277036892767949
-0.08477362741529958
-0.09038275118063577
-0.09519057155092393
-0.09959774022368809
-0.10400490889645225
-0.1084120775692164
-0.1084120775692164
-0.10520686398902429
-0.09959774022368809
-0.09438926815587591
-0.08797884099549168
-0.08357167232272752
-0.08156841383510745
-0.0799658070450114
-0.07796254855739132
-0.07756189685986732
-0.07555863837224723
-0.07115146969948308
-0.07115146969948308
-0.06994951460691104
-0.06994951460691104
-0.06714495272424294
-0.06994951460691104
-0.07115146969948308
-0.07275407648957913
-0.0747573349771992
-0.07355537988462717
-0.07235342479205513
-0.07075081800195906
-0.06754560442176695
-0.062337132353954765
-0.056327356891094554
-0.04711236784804223
-0.04110259238518201
-0.03268890673717771
-0.025076524484221444
-0.019467400718885246
-0.01345762525602503
-0.008249153188212845
-0.006646546398116788
-0.0010374226327805893
0.00016453245979145326
0.0017671392498875102
0.004171049435031595
0.0021677909474115244
-0.00023611923773256095
-0.0026400294228766464
-0.0058452430030687605
-0.007047198095640803
-0.006646546398116788
-0.006646546398116788
-0.0030406811204006607
-0.0010374226327805893
-0.0014380743303046037
-0.0018387260278286178
-0.0018387260278286178
-0.00023611923773256095
-0.003441332817924675
-0.009451108280784888
-0.017864793928789188
-0.025877827879269472
-0.03268890673717771
-0.04030128899013398
-0.04510910936042215
-0.04470845766289814
-0.0435065025703261
-0.037096075409941864
-0.031887603342129686
-0.024275221089173415
-0.01906674902136123
-0.01145436676840496
-0.0010374226327805893
0.006975611317699695
0.018594510545896108
0.023802982613708293
0.029412106379044494
0.03502123014438069
0.03421992674933266
0.03662383693447675
0.03662383693447675
0.03582253353942872
0.03341862335428464
0.03021340977409252
0.028610802983996465
0.026206892798852376
0.022601027521136248
0.023802982613708293
0.023802982613708293
0.028610802983996465
0.03141536486666456
0.03421992674933266
0.03782579202704879
0.03782579202704879
0.03982905051466886
0.0382264437245728
0.03742514032952477
0.034620578446856676
0.028610802983996465
0.02540558940380435
0.02220037582361224
0.019395813940944136
0.01578994866322801
0.012184083385511881
0.006574959620175681
0.006574959620175681
0.006174307922651667
0.00937952150284378
0.012184083385511881
0.018594510545896108
0.02340233091618428
0.029412106379044494
0.03542188184190471
0.04063035390971689
0.048643387860197174
0.0550538150205814
0.059060331995821544
0.05825902860077352
0.05585511841562943
0.04784208446514915
0.042232960699812944
0.03542188184190471
0.03181601656418858
0.03021340977409252
0.02740884789142442
0.02540558940380435
0.026206892798852376
0.027809499588948433
0.028610802983996465
0.03141536486666456
0.032617319959236606
0.03421992674933266
0.03582253353942872
0.03982905051466886
0.04423621918743302
0.044636870884957026
0.04423621918743302
0.043034264094860976
0.039027747119620836
0.037024488632000765
0.03381927505180865
0.03021340977409252
0.02740884789142442
0.02460428600875632
0.02420363431123231
0.025806241101328366
0.02740884789142442
0.03101471316914055
0.03582253353942872
0.03782579202704879
0.04423621918743302
0.048643387860197174
0.052649904835437314
0.057057073508201474
0.05986163539086957
0.061464242180965634
0.05946098369334556
0.057057073508201474
0.05665642181067746
0.05184860144038929
0.04543817428000506
0.04343491579238499
0.03782579202704879
0.032617319959236606
0.03101471316914055
0.030614061471616535
0.03301797165676062
0.038627095422096816
0.044636870884957026
0.05184860144038929
0.05986163539086957
0.06947727613144591
0.07588770329183014
0.08350008554478641
0.08910920931012262
0.09551963647050683
0.10633723230365523
0.11435026625413551
0.12156199680956777
0.12997568245757207
0.14079327829072047
0.15441543600653693
0.17164345900006955
0.1896727853886502
0.2101060219623749
0.23013860683857565
0.2501711917147763
0.26820051810335693
0.29384222674489385
0.31307350822604657
0.3323047897071993
0.3483308576081598
0.3643569255091204
0.3775784315274129
0.3903992858481813
0.39961427489123363
0.40362079186647376
0.4032201401689498
0.3980116681011376
0.3883960273605612
0.3771777798298888
0.3667608356942645
0.3519367228858759
0.3355100032873914
0.32028523878147885
0.30185526069537416
0.2842265860043175
0.26179009094297273
0.23935359588162794
0.21691710082028315
0.1956825608515104
0.17204411069759357
0.15281282921644088
0.13518415452538424
0.1195587383219477
0.10553592890860719
0.09111246779774268
0.07869226517449823
0.061464242180965634
0.04784208446514915
0.032617319959236606
0.018594510545896108
0.005773656225127653
-0.008249153188212845
-0.02026870411393327
-0.0266791312743175
-0.031887603342129686
-0.03469216522479779
-0.0322882550396537
-0.0266791312743175
-0.02347391769412539
-0.015861535441169115
-0.010653063373356931
-0.007447849793164817
-0.006646546398116788
-0.003441332817924675
-0.004242636212972703
-0.007447849793164817
-0.012255670163452989
-0.017464142231265172
-0.021470659206505316
-0.029083041459461584
-0.033490210132225744
-0.03909933389756194
-0.0463110644529942
-0.057929963681190605
-0.05993322216881068
-0.06434039084157483
-0.06514169423662286
-0.06474104253909885
-0.06514169423662286
-0.0631384357490028
-0.05993322216881068
-0.05993322216881068
-0.05913191877376265
-0.05913191877376265
-0.06193648065643075
-0.06474104253909885
-0.07115146969948308
-0.07796254855739132
-0.08397232402025154
-0.09238600966825583
-0.10079969531626012
-0.10881272926674042
-0.11161729114940852
-0.11562380812464866
-0.11602445982217267
-0.11241859454445655
-0.11321989793950457
-0.10921338096426444
-0.10560751568654832
-0.1028029538038802
-0.10240230210635619
-0.09799513343359204
-0.09679317834102
-0.09438926815587591
-0.09278666136577984
-0.08837949269301569
-0.08757818929796767
-0.08797884099549168
-0.09278666136577984
-0.09759448173606802
-0.10921338096426444
-0.12203423528503289
-0.1420668201612336
-0.1584935397597182
-0.17411895596315474
-0.1925489340492594
-0.20897565364774395
-0.2185912943883203
-0.23301475549918482
-0.23862387926452103
-0.24543495812242927
-0.25064343019024143
-0.25505059886300563
-0.25945776753576977
-0.26586819469615397
-0.2714773184614902
-0.27628513883177835
-0.28029165580701854
-0.2883046897574988
-0.29070859994264286
-0.29231120673273897
-0.2895066448500708
-0.2879040380599748
-0.2826955659921626
-0.27628513883177835
-0.26867275657882206
-0.2598584192332938
-0.24984212679519344
-0.237822575869473
-0.22500172154870454
-0.21137956383288806
-0.19495284423440348
-0.18012873142601493
-0.16610592201267443
-0.15288441599438196
-0.1420668201612336
-0.1332524828157053
-0.12884531414294112
-0.125239448865225
-0.12443814547017697
-0.12684205565532106
-0.1280440107478931
-0.12684205565532106
-0.1308485726305612
-0.1280440107478931
-0.12403749377265295
-0.12083228019246084
-0.11402120133455261
-0.1084120775692164
-0.09639252664349597
-0.08998209948311174
-0.07836320025491533
-0.07075081800195906
-0.0631384357490028
-0.0575293119836666
-0.04951627803318631
-0.04270519917527807
-0.036294772014893846
-0.026278479576793485
-0.020669355811457287
-0.01986805241640926
-0.01906674902136123
-0.015861535441169115
-0.013858276953549045
-0.012255670163452989
-0.006245894700592774
0.001366487552363496
0.008177566410271737
0.014187341873131951
0.018594510545896108
0.02460428600875632
0.03141536486666456
0.03662383693447675
0.039027747119620836
0.043034264094860976
0.043034264094860976
0.044636870884957026
0.04623947767505309
0.048643387860197174
0.04704078107010112
0.04383556748990901
0.0382264437245728
0.03421992674933266
0.032617319959236606
0.03542188184190471
0.03782579202704879
0.04383556748990901
0.049044039557721186
0.05665642181067746
0.06306684897106168
0.07107988292154198
0.0774903100819262
0.08229813045221436
0.08470204063735845
0.08750660252002655
0.08950986100764662
0.0919137711927907
0.08950986100764662
0.08670529912497853
0.08269878214973839
0.07628835498935416
0.07228183801411402
0.07067923122401797
0.06987792782896993
0.06787466934134985
0.06867597273639789
0.07268248971163803
0.07909291687202226
0.08470204063735845
0.0943176813779348
0.10152941193336706
0.10914179418632332
0.12076069341451974
0.12677046887737994
0.13278024434024016
0.1335815477352882
0.13037633415509609
0.1255685137848079
0.12116134511204374
0.11635352474175557
0.11394961455661148
0.10834049079127529
0.10553592890860719
0.10473462551355917
0.10152941193336706
0.10152941193336706
0.1027313670259391
0.10433397381603515
0.1027313670259391
0.11234700776651545
0.12036004171699573
0.12116134511204374
0.12316460359966383
0.12636981717985593
0.12396590699471184
0.12356525529718783
0.12316460359966383
0.12076069341451974
0.11555222134670755
0.11034374927889536
0.10593658060613122
0.099926805143271
0.0943176813779348
0.08950986100764662
0.08550334403240649
0.0830994338472624
0.08229813045221436
0.0830994338472624
0.08550334403240649
0.08830790591507458
0.09031116440269465
0.09351637798288677
0.09592028816803085
0.09792354665565094
0.09752289495812691
0.09792354665565094
0.0943176813779348
0.08870855761259859
0.08069552366211832
0.07188118631659
0.0662720625512538
0.062265545576013666
0.057457725205725486
0.05585511841562943
0.0550538150205814
0.05665642181067746
0.05665642181067746
0.05625577011315344
0.057057073508201474
0.06266619727353767
0.06306684897106168
0.06987792782896993
0.07067923122401797
0.07067923122401797
0.06987792782896993
0.06987792782896993
0.06747401764382585
0.0606629387859176
0.0550538150205814
0.05024599465029323
0.04383556748990901
0.0382264437245728
0.03301797165676062
0.029011454681520478
0.02340233091618428
0.02340233091618428
0.01979646563846815
0.02099842073104019
0.01979646563846815
0.022601027521136248
0.02220037582361224
0.02220037582361224
0.023802982613708293
0.025806241101328366
0.02740884789142442
0.027809499588948433
0.02460428600875632
0.01899516224342012
0.018594510545896108
0.01578994866322801
0.011783431687987865
0.01018082489789181
0.005773656225127653
0.0037703977375075815
0.0037703977375075815
0.0037703977375075815
0.003369746039983567
0.005773656225127653
0.006574959620175681
0.008978869805319766
0.011382779990463852
0.01298538678055991
0.014988645268179978
0.018594510545896108
0.018594510545896108
0.016591252058276038
0.011783431687987865
0.007776914712747723
0.0037703977375075815
-0.0010374226327805893
-0.00784850149068883
-0.015861535441169115
-0.022271962601553345
-0.029884344854509616
-0.03469216522479779
-0.037496727107465884
-0.0378973788049899
-0.03268890673717771
-0.029884344854509616
-0.022672614299077357
-0.017464142231265172
-0.009451108280784888
-0.005444591305544746
0.0005651841573154674
0.005773656225127653
0.00937952150284378
0.012184083385511881
0.011783431687987865
0.01018082489789181
0.006574959620175681
0.0029690943424595527
-0.0026400294228766464
-0.007047198095640803
-0.012255670163452989
-0.013858276953549045
-0.01626218713869313
-0.019467400718885246
-0.020669355811457287
-0.021470659206505316
-0.01986805241640926
-0.017864793928789188
-0.013858276953549045
-0.009851759978308904
-0.0030406811204006607
0.0021677909474115244
0.006574959620175681
0.011783431687987865
0.012584735083035894
0.008177566410271737
0.004972352830079624
-0.0018387260278286178
-0.006646546398116788
-0.007047198095640803
-0.008249153188212845
-0.01145436676840496
-0.013056973558501017
-0.012255670163452989
-0.009451108280784888
-0.008249153188212845
-0.005444591305544746
-0.004242636212972703
-0.0006367709352565752
0.007776914712747723
0.008578218107795752
0.0005651841573154674
-0.01986805241640926
-0.04110259238518201
-0.06393973914405082
-0.08757818929796767
-0.10400490889645225
-0.11482250472960064
-0.12003097679741283
-0.1224348869825569
-0.11802771830979274
-0.10881272926674042
-0.09198535797073182
-0.07796254855739132
-0.06113517726138273
-0.04430780596537413
-0.03068564824955764
-0.01706349053374116
-0.007047198095640803
0.004171049435031595
0.008578218107795752
0.018594510545896108
0.02059776903351618
0.026206892798852376
0.029011454681520478
0.03101471316914055
0.03181601656418858
0.03341862335428464
0.02740884789142442
0.01979646563846815
0.007776914712747723
-0.0018387260278286178
-0.00864980488573686
-0.01706349053374116
-0.018265445626313204
-0.017464142231265172
-0.01345762525602503
-0.007047198095640803
0.004972352830079624
0.019395813940944136
0.03662383693447675
0.057057073508201474
0.08229813045221436
0.099926805143271
0.11475091795165952
0.12717112057490398
0.1311776375501441
0.12677046887737994
0.11555222134670755
0.1031320187234631
0.09031116440269465
0.07588770329183014
0.05665642181067746
0.03502123014438069
0.013386038478083923
-0.006245894700592774
-0.018666097323837214
-0.0266791312743175
-0.02868238976193757
-0.02828173806441356
-0.0238745693916494
-0.015460883743645102
-0.007047198095640803
0.0037703977375075815
0.011382779990463852
0.022601027521136248
0.03341862335428464
0.04423621918743302
0.057057073508201474
0.06987792782896993
0.0770896583844022
0.0802948719645943
0.08189747875469036
0.08229813045221436
0.07989422026707028
0.08229813045221436
0.08229813045221436
0.08390073724231042
0.0915131194952667
0.10233071532841509
0.1167541764392796
0.12396590699471184
0.12717112057490398
0.128773727365
0.12997568245757207
0.12636981717985593
0.12396590699471184
0.11715482813680361
0.10874114248879932
0.0943176813779348
0.07588770329183014
0.05946098369334556
0.04984534295276922
0.04784208446514915
0.04824273616267317
0.057457725205725486
0.07268248971163803
0.08910920931012262
0.10633723230365523
0.12476721038975987
0.1447997952659606
0.16002455977187313
0.17244476239511758
0.18005714464807385
0.1816597514381699
0.18486496501836203
0.1812590997406459
0.17965649295054983
0.1752493242777857
0.17444802088273764
0.17685193106788175
0.17845453785797777
0.18486496501836203
0.1904740887836982
0.19768581933913046
0.2016923363143706
0.20850341517227883
0.21210928044999497
0.2153144940301871
0.22012231440047525
0.22332752798066738
0.22493013477076343
0.22452948307323942
0.2265327415608595
0.22813534835095556
0.2313405619311477
0.2297379551410516
0.2265327415608595
0.22613208986333547
0.2241288313757154
0.22252622458561935
0.22012231440047525
0.22012231440047525
0.2217249211905713
0.22493013477076343
0.22813534835095556
0.22773469665343155
0.22573143816581148
0.2241288313757154
0.2237281796781914
0.22332752798066738
0.22332752798066738
0.2217249211905713
0.22012231440047525
0.21972166270295126
0.21611579742523512
0.21210928044999497
0.21050667365989892
0.20569885328961074
0.20249363970941864
0.19768581933913046
0.19448060575893836
0.18927213369112617
0.18566626841341002
0.18526561671588604
0.18486496501836203
0.18486496501836203
0.18486496501836203
0.18486496501836203
0.18807017859855413
0.19287799896884228
0.1960832125490344
0.19728516764160645
0.1960832125490344
0.19287799896884228
0.1872688752035061
0.17965649295054983
0.17204411069759357
0.1656336835372093
0.16082586316692116
0.1588226046793011
0.15601804279663298
0.15601804279663298
0.15601804279663298
0.15601804279663298
0.15601804279663298
0.15762064958672906
0.16002455977187313
0.16242846995701724
0.1656336835372093
0.1656336835372093
0.16363042504958927
0.16042521146939714
0.15401478430901291
0.1447997952659606
0.13278024434024016
0.12196264850709178
0.11354896285908748
0.10753918739622727
0.09832419835317494
0.09511898477298283
0.09592028816803085
0.09792354665565094
0.10152941193336706
0.10914179418632332
0.11595287304423157
0.1255685137848079
0.13237959264271615
0.1427965367783405
0.14720370545110467
0.1536141326114889
0.15601804279663298
0.15601804279663298
0.15201152582139285
0.14720370545110467
0.14159458168576847
0.13999197489567242
0.12316460359966383
0.11394961455661148
0.10473462551355917
0.09632093986555487
0.08950986100764662
0.08189747875469036
0.07268248971163803
0.061464242180965634
0.0550538150205814
0.04543817428000506
0.03782579202704879
0.03181601656418858
0.029412106379044494
0.02740884789142442
0.02420363431123231
0.021399072428564207
0.019395813940944136
0.018594510545896108
0.018594510545896108
0.01578994866322801
0.014587993570655966
0.006975611317699695
0.0017671392498875102
-0.0058452430030687605
-0.009851759978308904
-0.013858276953549045
-0.017864793928789188
-0.02187131090402933
-0.024275221089173415
-0.029083041459461584
-0.033890861829749756
-0.037096075409941864
-0.03669542371241786
-0.03429151352727377
-0.03268890673717771
-0.027480434669365526
-0.026278479576793485
-0.025477176181745456
-0.029083041459461584
-0.03268890673717771
-0.035493468619845814
-0.03669542371241786
-0.0378973788049899
-0.0350928169223218
-0.03148695164460567
-0.025877827879269472
-0.01906674902136123
-0.004643287910496717
0.014187341873131951
0.0382264437245728
0.061464242180965634
0.08950986100764662
0.1167541764392796
0.14319718847586455
0.17004085220997348
0.1924773472713183
0.21210928044999497
0.2297379551410516
0.24255880946182007
0.24977054001725232
0.2505718434123004
0.24816793322715627
0.23935359588162794
0.22813534835095556
0.212910583845043
0.19928842612922654
0.18526561671588604
0.17044150390749752
0.15762064958672906
0.14560109866100862
0.13278024434024016
0.11475091795165952
0.0915131194952667
0.06266619727353767
0.03502123014438069
0.00016453245979145326
-0.03268890673717771
-0.06193648065643075
-0.09118405457568379
-0.11602445982217267
-0.14366942695132967
-0.16570527031515042
-0.1845359000987791
-0.2009626196972637
-0.21498542911060417
-0.22500172154870454
-0.23141214870908877
-0.237421924171949
-0.2410277894496651
-0.23982583435709307
-0.237822575869473
-0.23501801398680489
-0.22860758682642068
-0.2209952045734644
-0.21298217062298413
-0.20577044006755188
-0.20016131630221567
-0.19495284423440348
-0.18934372046906728
-0.18533720349382715
-0.1761222144507748
-0.17371830426563073
-0.16650657371019847
-0.16089744994486227
-0.15568897787705008
-0.14927855071666585
-0.1476759439265698
-0.14407007864885368
-0.1420668201612336
-0.13245117942065726
-0.11562380812464866
-0.1168257632172207
-0.1084120775692164
-0.0939886164583519
-0.08236971723015549
-0.06994951460691104
-0.05873126707623864
-0.0575293119836666
-0.056327356891094554
-0.054324098403474484
-0.057929963681190605
-0.058330615378714624
-0.057929963681190605
-0.056327356891094554
-0.05111888482328236
-0.046711716150518216
-0.04470845766289814
-0.03909933389756194
-0.03669542371241786
-0.03268890673717771
-0.024275221089173415
-0.020669355811457287
-0.01345762525602503
-0.010252411675832917
-0.007047198095640803
-0.007447849793164817
-0.010653063373356931
-0.012656321860977001
-0.015460883743645102
-0.01986805241640926
-0.022672614299077357
-0.025477176181745456
-0.027881086366889542
-0.0266791312743175
-0.027079782971841517
-0.026278479576793485
-0.027881086366889542
-0.027881086366889542
-0.0266791312743175
-0.02868238976193757
-0.029884344854509616
-0.02868238976193757
-0.025477176181745456
-0.0238745693916494
-0.0210700075089813
-0.01986805241640926
-0.02026870411393327
-0.021470659206505316
-0.02868238976193757
-0.03869868220003793
-0.0463110644529942
-0.057929963681190605
-0.06554234593414689
-0.07155212139700709
-0.07796254855739132
-0.07956515534748738
-0.08076711044005942
-0.07796254855739132
-0.07756189685986732
-0.07796254855739132
-0.07555863837224723
-0.07275407648957913
-0.07075081800195906
-0.06393973914405082
-0.05913191877376265
-0.05151953652080638
-0.047513019545566235
-0.04510910936042215
-0.03909933389756194
-0.037496727107465884
-0.035493468619845814
-0.03669542371241786
-0.03469216522479779
-0.033890861829749756
-0.03429151352727377
-0.03469216522479779
-0.03308955843470173
-0.02828173806441356
-0.020669355811457287
-0.01706349053374116
-0.009451108280784888
-0.003441332817924675
-0.00023611923773256095
0.0053730045276036385
0.01018082489789181
0.012584735083035894
0.016591252058276038
0.018594510545896108
0.02099842073104019
0.02220037582361224
0.01979646563846815
0.018193858848372095
0.01779320715084808
0.014587993570655966
0.011783431687987865
0.012584735083035894
0.012184083385511881
0.011783431687987865
0.012184083385511881
0.014988645268179978
0.01779320715084808
0.018594510545896108
0.02460428600875632
0.029412106379044494
0.03421992674933266
0.0382264437245728
0.043034264094860976
0.04543817428000506
0.05024599465029323
0.05585511841562943
0.057057073508201474
0.057457725205725486
0.05946098369334556
0.057858376903249506
0.057057073508201474
0.05665642181067746
0.053451208230485346
0.052649904835437314
0.0550538150205814
0.05825902860077352
0.0662720625512538
0.06987792782896993
0.07268248971163803
0.0750863998967821
0.07829161347697423
0.08069552366211832
0.08069552366211832
0.0770896583844022
0.07388444480421007
0.0690766244339219
0.06266619727353767
0.057057073508201474
0.05465316332305739
0.053451208230485346
0.053451208230485346
0.053451208230485346
0.057057073508201474
0.062265545576013666
0.06987792782896993
0.07588770329183014
0.08510269233488248
0.09311572628536274
0.10152941193336706
0.10914179418632332
0.11515156964918354
0.1199593900194717
0.12236330020461579
0.12196264850709178
0.12116134511204374
0.11875743492689966
0.1111450526739434
0.10593658060613122
0.09592028816803085
0.08950986100764662
0.08470204063735845
0.07909291687202226
0.07829161347697423
0.0770896583844022
0.07588770329183014
0.07989422026707028
0.08269878214973839
0.08550334403240649
0.08550334403240649
0.08870855761259859
0.08790725421755058
0.08790725421755058
0.08550334403240649
0.08269878214973839
0.07909291687202226
0.0770896583844022
0.07107988292154198
0.06747401764382585
0.06106359048344162
0.0606629387859176
0.05665642181067746
0.05024599465029323
0.044636870884957026
0.04423621918743302
0.03942839881714485
0.03982905051466886
0.043034264094860976
0.04984534295276922
0.057457725205725486
0.06947727613144591
0.07588770329183014
0.07989422026707028
0.07989422026707028
0.07909291687202226
0.07548705159430613
0.07027857952649394
0.0662720625512538
0.05986163539086957
0.057057073508201474
0.053451208230485346
0.05184860144038929
0.05024599465029323
0.05024599465029323
0.052649904835437314
0.05425251162553338
0.05665642181067746
0.06266619727353767
0.07548705159430613
0.08390073724231042
0.09551963647050683
0.1031320187234631
0.10793983909375128
0.10874114248879932
0.10553592890860719
0.09672159156307888
0.08991051270517064
0.0830994338472624
0.0742850965017341
0.06587141085372979
0.057057073508201474
0.05024599465029323
0.04063035390971689
0.03582253353942872
0.03582253353942872
0.03662383693447675
0.03421992674933266
0.03542188184190471
0.03662383693447675
0.03502123014438069
0.03542188184190471
0.03542188184190471
0.032617319959236606
0.027809499588948433
0.023802982613708293
0.018193858848372095
0.01018082489789181
0.0037703977375075815
-0.007047198095640803
-0.01425892865107306
-0.01986805241640926
-0.025877827879269472
-0.029884344854509616
-0.03268890673717771
-0.03148695164460567
-0.03268890673717771
-0.03068564824955764
-0.03148695164460567
-0.03028499655203363
-0.029083041459461584
-0.03068564824955764
-0.03268890673717771
-0.03268890673717771
-0.039499985595085954
-0.047513019545566235
-0.058330615378714624
-0.07075081800195906
-0.08357167232272752
-0.09639252664349597
-0.1084120775692164
-0.11802771830979274
-0.1280440107478931
-0.1420668201612336
-0.1480765956240938
-0.15368571938943001
-0.16009614654981422
-0.16089744994486227
-0.16129810164238628
-0.15929484315476622
-0.15809288806219418
-0.15729158466714613
-0.15689093296962214
-0.15889419145724218
-0.16089744994486227
-0.1685098321978185
-0.17291700087058268
-0.17972807972849095
-0.18573785519135116
-0.19014502386411533
-0.1973567544195476
-0.19855870951211962
-0.19775740611707157
-0.19214828235173537
-0.18533720349382715
-0.1761222144507748
-0.16650657371019847
-0.153285067691906
-0.1420668201612336
-0.12684205565532106
-0.11602445982217267
-0.10921338096426444
-0.10320360550140421
-0.10079969531626012
-0.10200165040883216
-0.0999983919212121
-0.09759448173606802
-0.09879643682864006
-0.10039904361873613
-0.1028029538038802
-0.10560751568654832
-0.11081598775436048
-0.11762706661226874
-0.124838797167701
-0.13485508960580134
-0.1456726854389497
-0.153285067691906
-0.16089744994486227
-0.16931113559286656
-0.1761222144507748
-0.18253264161115904
-0.1865391585863992
-0.19094632725916333
-0.19815805781459558
-0.1989593612096436
-0.20296587818488376
-0.20737304685764793
-0.21338282232050812
-0.22339911475860846
-0.23662062077690096
-0.2502427784927174
-0.25545125056052964
-0.264265587906058
-0.26747080148625
-0.2714773184614902
-0.26987471167139415
-0.2682721048812981
-0.2634642845110099
-0.25945776753576977
-0.2570538573506257
-0.25264668867786155
-0.25064343019024143
-0.25224603698033754
-0.2598584192332938
-0.27348057694911027
-0.28670208296740274
-0.30112554407826725
-0.3167509602817038
-0.3315750730900923
-0.34319397231828874
-0.35721678173162924
-0.3660311190771575
-0.3756467598177339
-0.378050670002878
-0.377650018305354
-0.37484545642268585
-0.3660311190771575
-0.3532102647563891
-0.33838615194800054
-0.321158128954468
-0.3063340161460794
-0.2899072965475949
-0.2742818803441583
-0.25945776753576977
-0.25064343019024143
-0.24343169963480918
-0.23942518265956905
-0.237822575869473
-0.23341540719670884
-0.2290082385239447
-0.22620367664127658
-0.2201939011784164
-0.21698868759822426
-0.21218086722793608
-0.20456848497497984
-0.19775740611707157
-0.1865391585863992
-0.1785261246359189
-0.16330136013000635
-0.15809288806219418
-0.14727529222904578
-0.1332524828157053
-0.12203423528503289
-0.11402120133455261
-0.1028029538038802
-0.09679317834102
-0.09038275118063577
-0.08397232402025154
-0.07956515534748738
-0.0747573349771992
-0.07115146969948308
-0.06754560442176695
-0.06273778405147878
-0.05672800858861857
-0.0491156263356623
-0.04430780596537413
-0.03469216522479779
-0.025477176181745456
-0.014659580348597073
-0.004242636212972703
0.01298538678055991
0.027008196193900408
0.042232960699812944
0.05585511841562943
0.06747401764382585
0.0742850965017341
0.07588770329183014
0.0774903100819262
0.08189747875469036
0.08109617535964232
0.08269878214973839
0.08069552366211832
0.08069552366211832
0.08269878214973839
0.08269878214973839
0.08870855761259859
0.09471833307545881
0.10152941193336706
0.10874114248879932
0.11915808662442368
0.12717112057490398
0.13999197489567242
0.14800500884615272
0.15601804279663298
0.16162716656196918
0.1656336835372093
0.16843824541987742
0.1672362903273054
0.16643498693225736
0.16403107674711326
0.16242846995701724
0.16002455977187313
0.15762064958672906
0.15281282921644088
0.14920696393872476
0.14680305375358066
0.14720370545110467
0.14640240205605665
0.14800500884615272
0.15201152582139285
0.1588226046793011
0.16843824541987742
0.17685193106788175
0.18526561671588604
0.19127539217874623
0.1960832125490344
0.19688451594408246
0.19728516764160645
0.19287799896884228
0.18566626841341002
0.18766952690103011
0.18486496501836203
0.17845453785797777
0.17444802088273764
0.1732460657901656
0.17244476239511758
0.17645127937035773
0.18085844804312187
0.18646757180845808
0.19367930236389033
0.2008910329193226
0.2073014600797068
0.212910583845043
0.21691710082028315
0.2237281796781914
0.22813534835095556
0.23053925853609963
0.22813534835095556
0.22493013477076343
0.2217249211905713
0.21691710082028315
0.21050667365989892
0.2065001566846588
0.20409624649951472
0.20369559480199068
0.20409624649951472
0.20569885328961074
0.2065001566846588
0.20890406686980287
0.20569885328961074
0.20529820159208675
0.20409624649951472
0.2048975498945627
0.20409624649951472
0.2008910329193226
0.19688451594408246
0.19207669557379428
0.18807017859855413
0.18005714464807385
0.1696402005124495
0.16242846995701724
0.15601804279663298
0.15521673940158498
0.15441543600653693
0.1592232563768251
0.16363042504958927
0.16883889711740144
0.17364671748768962
0.17925584125302582
0.1816597514381699
0.18566626841341002
0.18927213369112617
0.19207669557379428
0.19287799896884228
0.19367930236389033
0.19127539217874623
0.18486496501836203
0.17965649295054983
0.17244476239511758
0.16843824541987742
0.1648323801421613
0.16162716656196918
0.16162716656196918
0.16403107674711326
0.16523303183968532
0.1680375937223534
0.17204411069759357
0.1760506276728337
0.1812590997406459
0.1872688752035061
0.19367930236389033
0.1980864710366545
0.20249363970941864
0.2048975498945627
0.20409624649951472
0.20008972952427453
0.19407995406141434
0.18566626841341002
0.17444802088273764
0.1620278182594932
0.14760435714862868
0.13438285113033624
0.12076069341451974
0.10473462551355917
0.09351637798288677
0.08710595082250254
0.08350008554478641
0.08390073724231042
0.08550334403240649
0.08870855761259859
0.09351637798288677
0.09792354665565094
0.10393332211851114
0.10473462551355917
0.10473462551355917
0.10233071532841509
0.09752289495812691
0.09111246779774268
0.0830994338472624
0.0770896583844022
0.06987792782896993
0.062265545576013666
0.057858376903249506
0.057057073508201474
0.057057073508201474
0.061464242180965634
0.06867597273639789
0.0750863998967821
0.08269878214973839
0.08910920931012262
0.0915131194952667
0.09311572628536274
0.09351637798288677
0.09031116440269465
0.08870855761259859
0.08390073724231042
0.07668900668687817
0.0690766244339219
0.059060331995821544
0.0550538150205814
0.05184860144038929
0.04824273616267317
0.04704078107010112
0.04704078107010112
0.05024599465029323
0.05665642181067746
0.06306684897106168
0.07668900668687817
0.09031116440269465
0.10834049079127529
0.12997568245757207
0.15201152582139285
0.17685193106788175
0.20409624649951472
0.23294316872124374
0.25858487736278063
0.2850278893993656
0.30666308106566237
0.32909957612700713
0.3499334643982559
0.36595953229921646
0.38318755529274906
0.3964090613110415
0.4084286122367619
0.41884555637238635
0.4292625005080107
0.4412820514337311
0.4508976921743075
0.4605133329148838
0.46772506347031606
0.47012897365546014
0.4685263668653641
0.4621159397049799
0.45009638877925945
0.43326901748325086
0.40922991563181
0.381584948502653
0.34953281270073183
0.3178813285963348
0.28743179958450965
0.25618096717763655
0.23254251702371972
0.21050667365989892
0.1960832125490344
0.18526561671588604
0.17645127937035773
0.17204411069759357
0.1696402005124495
0.17044150390749752
0.1728454140926416
0.17965649295054983
0.1872688752035061
0.19688451594408246
0.2065001566846588
0.21491384233266309
0.22252622458561935
0.23053925853609963
0.2353470789063878
0.23895294418410393
0.24255880946182007
0.24736662983210825
0.24856858492468029
0.2521744502023964
0.25858487736278063
0.26659791131326094
0.26820051810335693
0.2834252826092695
0.2930409233498458
0.3034578674854702
0.31627872180623867
0.324291755756719
0.3355100032873914
0.3443243406329197
0.35153607118835195
0.3595491051388322
0.3643569255091204
0.36916474587940856
0.3707673526695046
0.3707673526695046
0.3707673526695046
0.3707673526695046
0.3707673526695046
0.3755751730397928
0.3787803866199849
0.3867934205704652
0.3948064545209455
0.40362079186647376
0.4156403427921942
0.4292625005080107
0.44608987180401927
0.4605133329148838
0.4717315804455562
0.4805459177910845
0.48455243476632465
0.4853537381613727
0.4825491762787046
0.4733341872356523
0.46371854649507593
0.4476924785941154
0.437275534458491
0.4236533767426745
0.4120344775144781
0.39961427489123363
0.3867934205704652
0.3787803866199849
0.3707673526695046
0.36595953229921646
0.3635556221140724
0.3635556221140724
0.3647575772066444
0.36756213908931246
0.3727706111571247
0.3787803866199849
0.3851908137803691
0.3907999375457053
0.39320384773084943
0.3964090613110415
0.3964090613110415
0.3907999375457053
0.3835882069902731
0.3739725662496967
0.3635556221140724
0.35313867797844795
0.3467282508180638
0.3391158685651075
0.3323047897071993
0.325093059151767
0.31627872180623867
0.3114709014359505
0.30185526069537416
0.2994513505102301
0.29464353013994193
0.2930409233498458
0.28783245128203366
0.2826239792142215
0.2778161588439333
0.26820051810335693
0.26820051810335693
0.2842265860043175
0.30105395730032614
0.324291755756719
0.3499334643982559
0.3787803866199849
0.4124351292120021
0.44288465822382717
0.4717315804455562
0.4969726373895691
0.5117967501979577
0.52301499772863
0.5246176045187261
0.521412390938534
0.5117967501979577
0.49897589587718916
0.48214852458118057
0.4573081193346917
0.4308651072981068
0.39761101640361357
0.3611517119289283
0.32389110405919497
0.28743179958450965
0.24896923662220427
0.21611579742523512
0.18326235822826595
0.15441543600653693
0.13197894094519214
0.11435026625413551
0.10152941193336706
0.09351637798288677
0.08510269233488248
0.08229813045221436
0.07909291687202226
0.0742850965017341
0.06947727613144591
0.05986163539086957
0.052649904835437314
0.04623947767505309
0.03662383693447675
0.02340233091618428
0.007776914712747723
-0.00784850149068883
-0.024275221089173415
-0.041503244082706024
-0.05712866028614259
-0.06754560442176695
-0.07836320025491533
-0.09038275118063577
-0.09919708852616407
-0.10961403266178844
-0.12083228019246084
-0.13245117942065726
-0.1456726854389497
-0.1496792024141899
-0.15929484315476622
-0.16730787710524647
-0.17451960766067873
-0.18293329330868308
-0.18613850688887515
-0.19294958574678342
-0.1957541476294515
-0.19655545102449953
-0.19936001290716762
-0.19936001290716762
-0.20336652988240778
-0.2041678332774558
-0.20657174346259988
-0.20496913667250383
-0.20336652988240778
-0.2017639230923117
-0.19936001290716762
-0.19936001290716762
-0.20016131630221567
-0.20536978837002784
-0.21378347401803213
-0.22259781136356047
-0.23581931738185294
-0.24503430642490526
-0.25945776753576977
-0.27628513883177835
-0.29551642031293107
-0.31314509500398763
-0.3283698595099002
-0.3443959274108608
-0.3596206919167733
-0.36963698435487363
-0.37484545642268585
-0.37885197339792603
-0.3768487149103059
-0.3756467598177339
-0.37444480472516184
-0.3724415462375418
-0.3724415462375418
-0.37204089454001776
-0.37083893944744567
-0.3684350292623016
-0.3676337258672536
-0.3660311190771575
-0.36883568095982566
-0.3704382877499217
-0.37484545642268585
-0.3848617488607862
-0.39527869299641055
-0.40449368203946295
-0.41731453636023136
-0.4293340872859518
-0.4405523348166242
-0.4493666721621525
-0.45577709932253674
-0.45898231290272884
-0.4605849196928249
-0.46178687478539693
-0.462187526482921
-0.46338948157549303
-0.4613862230878729
-0.45577709932253674
-0.4521712340448206
-0.4437575483968163
-0.43614516614386
-0.4301353906809998
-0.4237249635206156
-0.42051974994042346
-0.4197184465453755
-0.41891714315032746
-0.42132105333547154
-0.42132105333547154
-0.42292366012556754
-0.4233243118230916
-0.41891714315032746
-0.4165132329651834
-0.41090410919984716
-0.41090410919984716
-0.4089008507122271
-0.407298243922131
-0.4036923786444149
-0.3980832548790787
-0.3956793446939346
-0.39327543450879054
-0.3980832548790787
-0.4036923786444149
-0.41090410919984716
-0.42132105333547154
-0.4301353906809998
-0.4429562450017683
-0.4545751442299647
-0.4601842679953009
-0.46338948157549303
-0.462187526482921
-0.46178687478539693
-0.45577709932253674
-0.4477640653720565
-0.43534386274881204
-0.4269301771008077
-0.41731453636023136
-0.40769889561965506
-0.3980832548790787
-0.39367608620631456
-0.38846761413850234
-0.3852624005583103
-0.3848617488607862
-0.38926891753355036
-0.39728195148403067
-0.4036923786444149
-0.41050345750232314
-0.4125067159899432
-0.4165132329651834
-0.41891714315032746
-0.4181158397552794
-0.4149106261750873
-0.408500199014703
-0.3996858616691748
-0.39007022092859844
-0.37885197339792603
-0.3652298156821095
-0.3524089613613411
-0.3391874553430486
-0.3303731179975203
-0.32556529762723213
-0.32556529762723213
-0.3271679044173282
-0.3315750730900923
-0.34038941043562065
-0.350005051176197
-0.36122329870686937
-0.3724415462375418
-0.37885197339792603
-0.3836597937682142
-0.3848617488607862
-0.38766631074345437
-0.3896695692310744
-0.3872656590459303
-0.3832591420706902
-0.3804545801880221
-0.37484545642268585
-0.37164024284249375
-0.3676337258672536
-0.36362720889201344
-0.3596206919167733
-0.3596206919167733
-0.36082264700934535
-0.3652298156821095
-0.3660311190771575
-0.36883568095982566
-0.3740441530276378
-0.37885197339792603
-0.38285849037316616
-0.38926891753355036
-0.3888682658360264
-0.3896695692310744
-0.3852624005583103
-0.38205718697811814
-0.377650018305354
-0.3756467598177339
-0.3732428496325898
-0.3724415462375418
-0.3724415462375418
-0.3756467598177339
-0.3760474115152579
-0.3768487149103059
-0.3812558835830701
-0.38285849037316616
-0.38926891753355036
-0.39167282771869444
-0.39728195148403067
-0.3980832548790787
-0.40008651336669876
-0.3980832548790787
-0.39648064808898265
-0.39007022092859844
-0.3848617488607862
-0.37885197339792603
-0.36963698435487363
-0.36202460210191745
-0.3524089613613411
-0.34279332062076473
-0.3371841968554285
-0.3339789832752364
-0.3303731179975203
-0.32997246629999627
-0.3331776798801884
-0.33758484855295257
-0.34399527571333677
-0.34920374778114893
-0.3532102647563891
-0.35681613003410523
-0.3592200402192493
-0.3588193885217253
-0.35761743342915325
-0.3524089613613411
-0.3451972308059088
-0.34038941043562065
-0.3335783315777124
-0.32756855611485214
-0.3195555221643719
-0.31234379160893966
-0.3043307576584594
-0.3019268474733153
-0.29832098219559916
-0.3019268474733153
-0.30753597123865145
-0.3103405331213196
-0.31474770179408373
-0.3143470500965597
-0.31474770179408373
-0.3163503085841798
-0.3171516119792278
-0.31474770179408373
-0.3083372746336995
-0.3079366229361755
-0.3019268474733153
-0.29551642031293107
-0.2891059931525468
-0.2826955659921626
-0.2770864422268264
-0.26867275657882206
-0.2634642845110099
-0.2578551607456737
-0.25825581244319773
-0.25905711583824576
-0.26546754299863
-0.26707014978872606
-0.2690734082763461
-0.26947405997387014
-0.2682721048812981
-0.26867275657882206
-0.2690734082763461
-0.26466623960358193
-0.26586819469615397
-0.26226232941843786
-0.25545125056052964
-0.2502427784927174
-0.2402264860546171
-0.2346173622892809
-0.2266043283388006
-0.21979324948089235
-0.21418412571555617
-0.21017760874031602
-0.20737304685764793
-0.20817435025269596
-0.21338282232050812
-0.21578673250565222
-0.2209952045734644
-0.22460106985118053
-0.23021019361651673
-0.23581931738185294
-0.237822575869473
-0.2406271377521411
-0.24343169963480918
-0.23822322756699701
-0.23541866568432893
-0.2346173622892809
-0.23141214870908877
-0.2266043283388006
-0.2209952045734644
-0.21498542911060417
-0.20857500195021997
-0.20336652988240778
-0.19936001290716762
-0.19855870951211962
-0.19855870951211962
-0.19695610272202355
-0.19936001290716762
-0.2013632713947877
-0.20657174346259988
-0.21298217062298413
-0.2161873842031762
-0.2177899909932723
-0.2201939011784164
-0.2185912943883203
-0.2185912943883203
-0.21458477741308019
-0.2125815189254601
-0.20737304685764793
-0.2017639230923117
-0.1973567544195476
-0.19094632725916333
-0.1865391585863992
-0.18093003482106298
-0.17972807972849095
-0.17772482124087086
-0.18012873142601493
-0.18213198991363502
-0.18253264161115904
-0.18213198991363502
-0.1865391585863992
-0.1865391585863992
-0.1865391585863992
-0.18573785519135116
-0.18333394500620706
-0.181330686518587
-0.1761222144507748
-0.17371830426563073
-0.16810918050029452
-0.16370201182753036
-0.15889419145724218
-0.15248376429685798
-0.15088115750676193
-0.1480765956240938
-0.14887789901914183
-0.153285067691906
-0.15729158466714613
-0.16089744994486227
-0.16290070843248233
-0.1669072254077225
-0.1677085288027705
-0.16891048389534255
-0.16730787710524647
-0.1649039669201024
-0.15969549485229023
-0.14927855071666585
-0.1420668201612336
-0.13285183111818127
-0.12564010056274902
-0.11722641491474471
-0.11081598775436048
-0.10079969531626012
-0.09438926815587591
-0.08958144778558774
-0.08517427911282358
-0.08797884099549168
-0.09278666136577984
-0.097193830038544
-0.10320360550140421
-0.11041533605683648
-0.11562380812464866
-0.12043162849493683
-0.12323619037760493
-0.12283553868008092
-0.1224348869825569
-0.12003097679741283
-0.11482250472960064
-0.10881272926674042
-0.10200165040883216
-0.0947899198533999
-0.08397232402025154
-0.07836320025491533
-0.07035016630443504
-0.0631384357490028
-0.058330615378714624
-0.054324098403474484
-0.047513019545566235
-0.041903895780230044
-0.036294772014893846
-0.03268890673717771
-0.0322882550396537
-0.03268890673717771
-0.03268890673717771
-0.036294772014893846
-0.03869868220003793
-0.03909933389756194
-0.04110259238518201
-0.04310585087280209
-0.04030128899013398
-0.039499985595085954
-0.04030128899013398
-0.04430780596537413
-0.04550976105794617
-0.04831432294061427
-0.051920188218330394
-0.060333873866334695
-0.0659429976316709
-0.07395603158215117
-0.07876385195243936
-0.08357167232272752
-0.08757818929796767
-0.0915847062732078
-0.09679317834102
-0.09599187494597196
-0.09559122324844795
-0.09318731306330387
-0.0915847062732078
-0.09078340287815978
-0.08998209948311174
-0.0887801443905397
-0.08717753760044365
-0.08397232402025154
-0.07956515534748738
-0.0771612451623433
-0.07595929006977126
-0.07676059346481928
-0.0799658070450114
-0.08517427911282358
-0.09198535797073182
-0.09879643682864006
-0.10881272926674042
-0.11201794284693253
-0.11802771830979274
-0.12003097679741283
-0.12203423528503289
-0.1196303250998888
-0.12003097679741283
-0.11802771830979274
-0.11602445982217267
-0.11602445982217267
-0.11362054963702858
-0.11201794284693253
-0.11362054963702858
-0.11362054963702858
-0.11562380812464866
-0.11602445982217267
-0.11602445982217267
-0.1164251115196967
-0.11802771830979274
-0.11722641491474471
-0.11602445982217267
-0.11722641491474471
-0.11842837000731676
-0.1164251115196967
-0.11201794284693253
-0.10721012247664435
-0.1028029538038802
-0.09238600966825583
-0.08397232402025154
-0.07515798667472322
-0.07035016630443504
-0.0659429976316709
-0.06273778405147878
-0.06193648065643075
-0.06514169423662286
-0.0719527730945311
-0.07676059346481928
-0.08317102062520351
-0.08837949269301569
-0.09038275118063577
-0.09438926815587591
-0.09639252664349597
-0.09679317834102
-0.09318731306330387
-0.08918079608806372
