-0.069308388
-0.073913025
-0.073913025
-0.086192058
-0.059331673
-0.046285201
-0.040913124
-0.039378245
-0.018657377
-0.016355058
-0.017889937
-0.010982981
0.02124948
0.029691316
0.034295953
0.040435469
0.09262136
0.1263887
0.171667634
0.216946568
0.246109271
0.313643953
0.355853129
0.411876216
0.439504041
0.479410898
0.507038722
0.553085095
0.583782678
0.605270985
0.620619777
0.648247601
0.626759293
0.616015139
0.594526832
0.585317557
0.557689733
0.54464326
0.495527128
0.451783074
0.411876216
0.37043448
0.325922986
0.261458063
0.205434975
0.159388601
0.12715614
0.084946964
0.054249382
0.02201692
-0.011750421
-0.043215443
-0.067773508
-0.092331574
-0.11765708
-0.131470992
-0.145284904
-0.149122102
-0.155261618
-0.159866256
-0.199773113
-0.146052344
-0.119959399
-0.122261717
-0.110750124
-0.128401234
-0.080052541
-0.088494377
-0.057796794
-0.097703651
-0.002541146
-0.086959497
-0.104610607
-0.090029256
-0.092331574
-0.095401333
-0.096168772
-0.093866453
-0.088494377
-0.093866453
-0.068540948
-0.056261915
-0.042448003
-0.020192256
-0.023262014
-0.036308487
-0.019424816
0.046574986
-0.011750421
-0.003308585
0.003598371
-0.027099212
-0.051657278
-0.049354959
-0.057796794
-0.079285102
-0.086959497
-0.089261816
-0.081587421
-0.077750223
-0.071610706
-0.083889739
-0.056261915
-0.045517761
-0.034006168
0.015877404
-0.022494574
0.012040206
-0.019424816
-0.011750421
-0.014820179
-0.015587618
-0.059331673
-0.020959695
-0.050122399
-0.062401432
-0.0831223
-0.069308388
-0.109982684
-0.140680267
-0.116122201
-0.091564135
-0.09923853
-0.08235486
-0.069308388
-0.057796794
-0.052424717
-0.040913124
0.024319239
0.020482041
-0.024029454
-0.024029454
-0.002541146
-0.023262014
-0.016355058
-0.077750223
0.005900689
-0.083889739
-0.045517761
-0.096168772
-0.06470375
-0.034773607
-0.031703849
-0.068540948
-0.077750223
0.00436581
-0.018657377
-0.036308487
-0.020192256
-0.034773607
-0.016355058
-0.017889937
-0.020192256
-0.023262014
-0.024796893
-0.010215541
-0.062401432
-0.034773607
-0.051657278
-0.03093641
-0.068540948
-0.036308487
0.035063393
-0.04782008
-0.027866651
-0.014820179
-0.009448102
-0.024796893
0.005900689
0.015109964
0.016644843
0.036598272
-0.024029454
-0.010215541
0.002063491
0.000528612
0.00436581
-0.057029355
0.024319239
-0.044750322
-0.022494574
-0.015587618
-0.003308585
0.011272766
0.076505129
0.052714502
0.038133151
0.078040008
0.089551601
0.053481942
0.098760876
0.094156239
0.089551601
0.088016722
0.070365612
0.064993535
0.061923777
0.055016821
0.058854019
0.064226096
0.068830733
0.079574887
0.088784162
0.102598074
0.113342228
0.122551502
0.130993338
0.137900294
0.141737491
0.149411887
0.149411887
0.14480725
0.138667733
0.129458458
0.114109667
0.102598074
0.089551601
0.078040008
0.078040008
0.078040008
0.084946964
0.097993436
0.107970151
0.127923579
0.149411887
0.164760678
0.181644348
0.200062898
0.209272173
0.212341931
0.206202414
0.19699314
0.183179228
0.163993239
0.14480725
0.12715614
0.103365513
0.09185392
0.084946964
0.084946964
0.088016722
0.089551601
0.101830634
0.112574788
0.1263887
0.135597975
0.14403981
0.149411887
0.14480725
0.14327237
0.134830535
0.132528217
0.1263887
0.106435272
0.09262136
0.07420281
0.053481942
0.041970349
0.029691316
0.028923876
0.035830832
0.040435469
0.045040107
0.046574986
0.050412184
0.053481942
0.058854019
0.064993535
0.071133052
0.067295854
0.068063294
0.061923777
0.051179623
0.029691316
0.015877404
-0.004076025
-0.017889937
-0.019424816
-0.020192256
-0.020192256
-0.010982981
-0.004076025
0.00436581
0.015109964
0.016644843
0.028923876
0.028923876
0.028923876
0.023551799
0.012807645
0.00513325
0.003598371
-0.007913223
-0.020192256
-0.03016897
-0.045517761
-0.059331673
-0.067773508
-0.076215344
-0.079285102
-0.081587421
-0.077750223
-0.071610706
-0.067006069
-0.063936311
-0.058564234
-0.057029355
-0.063936311
-0.063936311
-0.060866552
-0.069308388
-0.080052541
-0.092331574
-0.098471091
-0.10077341
-0.120726838
-0.13454075
-0.142982585
-0.149889541
-0.150656981
-0.155261618
-0.15142442
-0.146819783
-0.145284904
-0.140680267
-0.142982585
-0.142215146
-0.143750025
-0.15142442
-0.148354662
-0.154494179
-0.167540651
-0.167540651
-0.172145289
-0.172145289
-0.180587124
-0.176749926
-0.170610409
-0.165238333
-0.162936014
-0.150656981
-0.141447706
-0.130703552
-0.123796596
-0.118424519
-0.109215245
-0.106912926
-0.102308289
-0.094633893
-0.093866453
-0.091564135
-0.094633893
-0.104610607
-0.116122201
-0.125331475
-0.133005871
-0.140680267
-0.149122102
-0.1529593
-0.148354662
-0.140680267
-0.133773311
-0.126098915
-0.114587322
-0.104610607
-0.093866453
-0.080052541
-0.069308388
-0.06470375
-0.054727036
-0.049354959
-0.054727036
-0.06547119
-0.076215344
-0.087726937
-0.093866453
-0.105378047
-0.113819882
-0.118424519
-0.123029157
-0.120726838
-0.110750124
-0.098471091
-0.089261816
-0.074680464
-0.069308388
-0.060866552
-0.058564234
-0.057796794
-0.055494475
-0.056261915
-0.062401432
-0.067006069
-0.070075827
-0.079285102
-0.0831223
-0.091564135
-0.096168772
-0.095401333
-0.094633893
-0.093866453
-0.088494377
-0.070075827
-0.062401432
-0.04705264
-0.041680563
-0.040145684
-0.038610805
-0.043215443
-0.051657278
-0.060866552
-0.074680464
-0.088494377
-0.096936212
-0.110750124
-0.11688964
-0.119191959
-0.119959399
-0.122261717
-0.118424519
-0.115354761
-0.108447805
-0.098471091
-0.093866453
-0.090796695
-0.081587421
-0.080052541
-0.076982783
-0.081587421
-0.08235486
-0.089261816
-0.094633893
-0.102308289
-0.113819882
-0.118424519
-0.123796596
-0.127633794
-0.129168673
-0.132238431
-0.130703552
-0.129168673
-0.120726838
-0.11765708
-0.109215245
-0.10077341
-0.093099014
-0.093866453
-0.090029256
-0.094633893
-0.096168772
-0.106912926
-0.114587322
-0.130703552
-0.141447706
-0.143750025
-0.157563937
-0.16907553
-0.176749926
-0.179052245
-0.174447607
-0.172145289
-0.159866256
-0.142982585
-0.126098915
-0.108447805
-0.10077341
-0.091564135
-0.086192058
-0.0831223
-0.080052541
-0.083889739
-0.086959497
-0.093866453
-0.106912926
-0.114587322
-0.122261717
-0.131470992
-0.137610508
-0.140680267
-0.141447706
-0.140680267
-0.130703552
-0.118424519
-0.118424519
-0.113819882
-0.109982684
-0.107680366
-0.105378047
-0.102308289
-0.09923853
-0.10000597
-0.105378047
-0.109982684
-0.118424519
-0.129168673
-0.130703552
-0.139145388
-0.140680267
-0.142982585
-0.140680267
-0.138377948
-0.129936113
-0.121494278
-0.11688964
-0.096168772
-0.090029256
-0.085424618
-0.077750223
-0.071610706
-0.070843267
-0.078517662
-0.080052541
-0.088494377
-0.093866453
-0.105378047
-0.118424519
-0.129168673
-0.13454075
-0.130703552
-0.129936113
-0.118424519
-0.106912926
-0.086959497
-0.077750223
-0.057796794
-0.044750322
-0.036308487
-0.032471289
-0.027866651
-0.025564333
-0.031703849
-0.043215443
-0.057796794
-0.073145585
-0.083889739
-0.093866453
-0.103843168
-0.103843168
-0.109215245
-0.106912926
-0.105378047
-0.101540849
-0.101540849
-0.091564135
-0.089261816
-0.081587421
-0.071610706
-0.06470375
-0.050122399
-0.044750322
-0.044750322
-0.046285201
-0.051657278
-0.053959596
-0.058564234
-0.069308388
-0.076215344
-0.084657179
-0.086959497
-0.085424618
-0.080052541
-0.069308388
-0.059331673
-0.04705264
-0.044750322
-0.054727036
-0.025564333
-0.020192256
-0.017889937
-0.010215541
-0.017889937
-0.019424816
-0.027099212
-0.031703849
-0.043215443
-0.045517761
-0.050122399
-0.061633992
-0.067773508
-0.069308388
-0.069308388
-0.069308388
-0.06470375
-0.058564234
-0.053192157
-0.046285201
-0.040913124
-0.034006168
-0.033238728
-0.027866651
-0.028634091
-0.032471289
-0.040913124
-0.045517761
-0.057029355
-0.057029355
-0.063936311
-0.062401432
-0.068540948
-0.069308388
-0.062401432
-0.053959596
-0.044750322
-0.031703849
-0.014820179
0.00436581
0.016644843
0.028923876
0.032761074
0.03966803
0.041970349
0.033528513
0.028923876
0.018179722
0.009737887
0.00436581
-0.006378344
-0.009448102
-0.0132853
-0.010982981
-0.009448102
-0.008680662
0.002830931
0.008203008
0.018179722
0.027388997
0.03890059
0.046574986
0.053481942
0.053481942
0.052714502
0.049644744
0.052714502
0.050412184
0.048877305
0.045807546
0.041970349
0.040435469
0.032761074
0.026621557
0.028156437
0.026621557
0.028923876
0.032761074
0.045807546
0.05731914
0.068063294
0.078040008
0.084946964
0.084946964
0.081877206
0.077272568
0.064993535
0.043505228
0.013575085
0.00436581
-0.010215541
-0.020959695
-0.027866651
-0.020192256
-0.015587618
-0.008680662
0.002063491
0.018179722
0.028156437
0.035830832
0.046574986
0.051947063
0.055784261
0.053481942
0.051947063
0.045807546
0.034295953
0.024319239
0.012807645
-0.002541146
-0.018657377
-0.027099212
-0.039378245
-0.040145684
-0.041680563
-0.037075926
-0.036308487
-0.028634091
-0.028634091
-0.023262014
-0.01251786
-0.003308585
0.002063491
0.005900689
0.012040206
0.010505327
0.006668129
0.002830931
-0.009448102
-0.014820179
-0.024796893
-0.022494574
-0.020192256
-0.01251786
-0.007145783
-0.002541146
0.001296052
0.00436581
0.008970448
0.011272766
0.02124948
0.024319239
0.028923876
0.026621557
0.028923876
0.02124948
0.015877404
0.012807645
0.012040206
0.009737887
0.00436581
0.003598371
0.000528612
-0.002541146
0.002830931
0.005900689
0.012807645
0.016644843
0.023551799
0.028156437
0.028923876
0.028923876
0.029691316
0.024319239
0.02124948
0.009737887
0.00436581
-0.005610904
-0.0132853
-0.016355058
-0.017122498
-0.014820179
0.003598371
0.015109964
0.034295953
0.063458656
0.095691118
0.141737491
0.189318744
0.239969755
0.293690524
0.342806656
0.393457667
0.462527227
0.479410898
0.531596788
0.568433887
0.592991953
0.610643062
0.619084898
0.619084898
0.617550018
0.611410502
0.605270985
0.596061711
0.585317557
0.574573403
0.565364128
0.546945579
0.524689832
0.496294568
0.471736502
0.434899403
0.398062304
0.348946173
0.299062601
0.252248788
0.19699314
0.141737491
0.088016722
0.044272667
0.009737887
-0.019424816
-0.044750322
-0.060866552
-0.054727036
-0.083889739
-0.093099014
-0.093866453
-0.097703651
-0.093866453
-0.093866453
-0.088494377
-0.089261816
-0.088494377
-0.086959497
-0.085424618
-0.080052541
-0.079285102
-0.079285102
-0.080819981
-0.071610706
-0.070075827
-0.06470375
-0.060866552
-0.053192157
-0.044750322
-0.037075926
-0.031703849
-0.022494574
-0.020192256
-0.016355058
-0.010215541
-0.006378344
0.017412283
-0.01251786
-0.019424816
-0.024796893
-0.042448003
-0.052424717
-0.06547119
-0.076215344
-0.08235486
-0.085424618
-0.077750223
-0.070843267
-0.057796794
-0.04705264
-0.032471289
-0.023262014
-0.008680662
0.002063491
0.000528612
0.003598371
0.00436581
0.00436581
0.000528612
-0.003308585
-0.008680662
-0.016355058
-0.022494574
-0.027866651
-0.032471289
-0.035541047
-0.037075926
-0.03016897
-0.024796893
-0.019424816
-0.009448102
-0.006378344
-0.001006267
0.00513325
0.009737887
0.017412283
0.020482041
0.018947162
0.012807645
0.002830931
-0.006378344
-0.015587618
-0.027866651
-0.033238728
-0.032471289
-0.027866651
-0.024029454
-0.009448102
-0.000238827
0.015877404
0.029691316
0.041202909
0.053481942
0.064993535
0.068063294
0.066528415
0.061156338
0.051179623
0.033528513
0.018947162
0.005900689
-0.010215541
-0.01251786
-0.017889937
-0.020192256
-0.024029454
-0.027099212
-0.031703849
-0.031703849
-0.03016897
-0.020192256
-0.016355058
-0.008680662
0.00436581
0.017412283
0.029691316
0.040435469
0.046574986
0.049644744
0.045807546
0.045807546
0.049644744
0.048109865
0.043505228
0.041970349
0.03890059
0.037365711
0.037365711
0.03890059
0.040435469
0.048109865
0.052714502
0.053481942
0.0565517
0.055784261
0.0565517
0.063458656
0.067295854
0.070365612
0.075737689
0.073435371
0.07420281
0.077272568
0.076505129
0.072667931
0.075737689
0.077272568
0.078807447
0.086481843
0.09108648
0.098760876
0.102598074
0.114109667
0.122551502
0.12715614
0.131760777
0.130993338
0.12715614
0.114109667
0.102598074
0.09262136
0.078040008
0.073435371
0.071133052
0.077272568
0.078040008
0.083412085
0.094923678
0.104900392
0.114109667
0.1263887
0.130993338
0.140202612
0.14327237
0.147877008
0.151714206
0.150946766
0.147877008
0.140970052
0.137900294
0.136365414
0.12715614
0.114109667
0.104900392
0.097225997
0.089551601
0.080342327
0.078040008
0.082644645
0.088784162
0.097993436
0.104900392
0.120249184
0.132528217
0.14327237
0.152481645
0.154016524
0.155551403
0.150946766
0.14403981
0.132528217
0.124853821
0.114109667
0.104900392
0.101830634
0.09108648
0.086481843
0.09185392
0.101830634
0.106435272
0.107970151
0.111039909
0.120249184
0.1263887
0.127923579
0.129458458
0.130225898
0.122551502
0.104900392
0.093388799
0.078040008
0.064993535
0.052714502
0.041970349
0.029691316
0.02278436
0.018947162
0.018179722
0.018179722
0.02124948
0.028156437
0.028156437
0.028923876
0.034295953
0.034295953
0.041970349
0.043505228
0.042737788
0.03966803
0.029691316
0.019714601
0.009737887
0.008203008
0.002830931
-0.006378344
-0.0132853
-0.017122498
-0.014820179
-0.008680662
-0.009448102
-0.002541146
0.005900689
0.016644843
0.025086678
0.031226195
0.034295953
0.028923876
0.020482041
0.012807645
-0.000238827
-0.011750421
-0.020192256
-0.027099212
-0.032471289
-0.039378245
-0.042448003
-0.040145684
-0.037843366
-0.032471289
-0.022494574
-0.011750421
-0.000238827
0.00436581
0.00436581
0.000528612
-0.005610904
-0.014820179
-0.024029454
-0.032471289
-0.034006168
-0.040145684
-0.043982882
-0.050122399
-0.051657278
-0.055494475
-0.057796794
-0.04705264
-0.045517761
-0.037075926
-0.027099212
-0.0132853
0.000528612
0.008970448
0.018947162
0.028923876
0.038133151
0.040435469
0.045040107
0.040435469
0.028923876
0.009737887
-0.007145783
-0.021727135
-0.034773607
-0.041680563
-0.04705264
-0.048587519
-0.050889838
-0.04705264
-0.043982882
-0.03093641
-0.020959695
-0.014820179
-0.007913223
0.002830931
0.00436581
0.00513325
0.00436581
0.005900689
0.002830931
0.002063491
-0.007145783
-0.010215541
-0.016355058
-0.020192256
-0.023262014
-0.023262014
-0.021727135
-0.020192256
-0.019424816
-0.017122498
-0.014820179
-0.011750421
-0.006378344
-0.003308585
0.002063491
0.00436581
0.00436581
0.000528612
0.00436581
-0.003308585
-0.005610904
-0.01251786
-0.017122498
-0.020192256
-0.027866651
-0.025564333
-0.024029454
-0.024796893
-0.020192256
-0.020192256
-0.017889937
-0.008680662
-0.001006267
0.002063491
0.00436581
0.009737887
0.00513325
0.002063491
-0.005610904
-0.016355058
-0.019424816
-0.020959695
-0.021727135
-0.020192256
-0.019424816
-0.014820179
-0.005610904
0.002063491
0.012040206
0.020482041
0.026621557
0.033528513
0.046574986
0.052714502
0.053481942
0.052714502
0.041970349
0.028923876
0.012807645
0.00513325
-0.001006267
0.002830931
-0.004076025
0.000528612
0.002063491
0.00513325
0.02201692
0.034295953
0.045807546
0.054249382
0.064993535
0.068063294
0.076505129
0.078040008
0.080342327
0.080342327
0.078040008
0.068830733
0.058854019
0.045807546
0.031226195
0.015877404
-0.000238827
-0.010215541
-0.020192256
-0.028634091
-0.027866651
-0.027099212
-0.018657377
-0.005610904
0.011272766
0.028923876
0.042737788
0.053481942
0.063458656
0.064993535
0.063458656
0.05731914
0.044272667
0.030458755
0.020482041
0.006668129
0.002830931
-0.000238827
-0.004076025
-0.004843465
-0.002541146
0.003598371
0.003598371
0.008970448
0.018179722
0.028923876
0.029691316
0.036598272
0.040435469
0.048877305
0.051947063
0.046574986
0.046574986
0.037365711
0.029691316
0.016644843
0.005900689
-0.002541146
-0.009448102
-0.020192256
-0.020192256
-0.020192256
-0.014820179
-0.005610904
0.002063491
0.008970448
0.016644843
0.025086678
0.029691316
0.034295953
0.029691316
0.025086678
0.012807645
0.008203008
0.000528612
-0.004076025
-0.009448102
-0.016355058
-0.018657377
-0.016355058
-0.020192256
-0.020192256
-0.018657377
-0.0132853
-0.016355058
-0.016355058
-0.009448102
-0.004076025
-0.002541146
0.00436581
0.00513325
0.00436581
-0.004076025
-0.015587618
-0.021727135
-0.03016897
-0.044750322
-0.053959596
-0.056261915
-0.053959596
-0.051657278
-0.04782008
-0.045517761
-0.044750322
-0.046285201
-0.046285201
-0.053192157
-0.054727036
-0.053192157
-0.053959596
-0.054727036
-0.059331673
-0.060866552
-0.06470375
-0.069308388
-0.080052541
-0.083889739
-0.084657179
-0.092331574
-0.090029256
-0.085424618
-0.073913025
-0.068540948
-0.052424717
-0.044750322
-0.037075926
-0.034006168
-0.032471289
-0.032471289
-0.03016897
-0.034006168
-0.043982882
-0.051657278
-0.057796794
-0.067773508
-0.070075827
-0.073145585
-0.077750223
-0.079285102
-0.079285102
-0.070843267
-0.069308388
-0.058564234
-0.048587519
-0.044750322
-0.032471289
-0.022494574
-0.017122498
-0.014820179
-0.009448102
-0.004843465
-0.008680662
-0.010215541
-0.0132853
-0.017889937
-0.016355058
-0.017889937
-0.020192256
-0.016355058
-0.01251786
-0.004076025
0.003598371
0.008203008
0.02201692
0.034295953
0.040435469
0.049644744
0.055784261
0.064226096
0.069598173
0.072667931
0.073435371
0.069598173
0.064993535
0.055784261
0.051947063
0.048109865
0.045807546
0.045040107
0.041970349
0.046574986
0.048877305
0.052714502
0.062691217
0.07497025
0.083412085
0.097993436
0.102598074
0.112574788
0.123318942
0.125621261
0.124086381
0.104900392
0.094156239
0.078807447
0.065760975
0.052714502
0.028923876
0.015877404
-0.000238827
-0.014820179
-0.025564333
-0.020192256
-0.010215541
0.005900689
0.018947162
0.031993634
0.045040107
0.055016821
0.060388898
0.061156338
0.058086579
0.053481942
0.041970349
0.029691316
0.016644843
0.003598371
-0.006378344
-0.020192256
-0.025564333
-0.033238728
-0.036308487
-0.032471289
-0.028634091
-0.022494574
-0.015587618
-0.001006267
0.00436581
0.009737887
0.009737887
0.003598371
-0.004076025
-0.010215541
-0.019424816
-0.024029454
-0.03016897
-0.040913124
-0.044750322
-0.049354959
-0.048587519
-0.043982882
-0.032471289
-0.020959695
-0.01251786
-0.005610904
0.00436581
0.005900689
0.009737887
0.012040206
0.009737887
0.008970448
0.008203008
0.002063491
-0.008680662
-0.019424816
-0.023262014
-0.034773607
-0.044750322
-0.055494475
-0.063936311
-0.069308388
-0.069308388
-0.068540948
-0.06470375
-0.053192157
-0.043215443
-0.022494574
-0.011750421
0.00513325
0.012040206
0.014342524
0.006668129
0.000528612
-0.011750421
-0.023262014
-0.032471289
-0.040913124
-0.042448003
-0.043982882
-0.040913124
-0.03016897
-0.014820179
0.005900689
0.037365711
0.064993535
0.097225997
0.132528217
0.174737392
0.212341931
0.24841159
0.298295162
0.33513226
0.371969359
0.40496926
0.437969161
0.470201623
0.495527128
0.507038722
0.54464326
0.559224612
0.57994548
0.596061711
0.608340744
0.617550018
0.617550018
0.61448026
0.599131469
0.58071292
0.549247898
0.506271282
0.462527227
0.408806458
0.35355081
0.293690524
0.23076048
0.169365316
0.107970151
0.054249382
0.005900689
-0.034006168
-0.069308388
-0.093099014
-0.109215245
-0.119191959
-0.125331475
-0.125331475
-0.129168673
-0.131470992
-0.140680267
-0.142982585
-0.148354662
-0.157563937
-0.165238333
-0.166005772
-0.159866256
-0.156029058
-0.153726739
-0.146819783
-0.144517464
-0.141447706
-0.132238431
-0.126098915
-0.11765708
-0.103843168
-0.093099014
-0.080052541
-0.070075827
-0.06547119
-0.056261915
-0.054727036
-0.060866552
-0.069308388
-0.0831223
-0.09923853
-0.11765708
-0.123029157
-0.130703552
-0.13454075
-0.141447706
-0.138377948
-0.139145388
-0.139145388
-0.13454075
-0.129168673
-0.118424519
-0.107680366
-0.096168772
-0.090029256
-0.081587421
-0.074680464
-0.070843267
-0.073145585
-0.079285102
-0.086959497
-0.10077341
-0.103843168
-0.116122201
-0.119191959
-0.119959399
-0.122261717
-0.123796596
-0.118424519
-0.118424519
-0.109982684
-0.106912926
-0.109982684
-0.10077341
-0.098471091
-0.093866453
-0.085424618
-0.080819981
-0.081587421
-0.080819981
-0.084657179
-0.090029256
-0.094633893
-0.097703651
-0.106145486
-0.114587322
-0.11688964
-0.116122201
-0.11765708
-0.109982684
-0.108447805
-0.097703651
-0.090029256
-0.072378146
-0.063936311
-0.055494475
-0.054727036
-0.053192157
-0.058564234
-0.069308388
-0.072378146
-0.081587421
-0.090029256
-0.122261717
-0.094633893
-0.103075728
-0.103843168
-0.108447805
-0.109215245
-0.106912926
-0.103843168
-0.091564135
-0.080052541
-0.060866552
-0.044750322
-0.033238728
-0.020959695
-0.027099212
-0.022494574
-0.024796893
-0.027099212
-0.032471289
-0.073145585
-0.040913124
-0.042448003
-0.046285201
-0.051657278
-0.053959596
-0.045517761
-0.044750322
-0.040913124
-0.037075926
-0.028634091
-0.024029454
-0.007913223
0.008203008
0.024319239
0.031226195
0.041970349
0.046574986
0.045040107
0.042737788
0.038133151
0.035830832
0.034295953
0.032761074
0.031226195
0.033528513
0.041970349
0.049644744
0.055784261
0.066528415
0.068830733
0.080342327
0.084946964
0.09262136
0.100295755
0.102598074
0.099528316
0.09262136
0.088784162
0.078807447
0.072667931
0.064993535
0.05731914
0.05731914
0.054249382
0.055016821
0.05731914
0.065760975
0.068063294
0.083412085
0.09262136
0.104900392
0.120249184
0.134063096
0.140970052
0.146342129
0.149411887
0.14327237
0.138667733
0.129458458
0.114109667
0.102598074
0.09185392
0.09185392
0.086481843
0.09262136
0.094156239
0.093388799
0.094923678
0.101830634
0.104900392
0.114109667
0.125621261
0.12715614
0.12715614
0.130225898
0.131760777
0.128691019
0.1263887
0.113342228
0.106435272
0.09108648
0.077272568
0.065760975
0.060388898
0.061923777
0.067295854
0.07420281
0.078040008
0.085714404
0.09185392
0.093388799
0.09262136
0.095691118
0.09262136
0.09262136
0.089551601
0.082644645
0.071133052
0.055784261
0.041970349
0.028923876
0.015877404
0.008203008
0.005900689
0.002063491
0.00436581
0.009737887
0.009737887
0.020482041
0.028923876
0.033528513
0.040435469
0.041970349
0.045040107
0.03890059
0.028923876
0.018179722
0.005900689
-0.005610904
-0.016355058
-0.032471289
-0.037075926
-0.04705264
-0.053192157
-0.057796794
-0.062401432
-0.063936311
-0.06547119
-0.063936311
-0.058564234
-0.052424717
-0.049354959
-0.041680563
-0.036308487
-0.03093641
-0.032471289
-0.037075926
-0.044750322
-0.057796794
-0.069308388
-0.08235486
-0.091564135
-0.098471091
-0.104610607
-0.107680366
-0.106912926
-0.093866453
-0.089261816
-0.077750223
-0.068540948
-0.054727036
-0.044750322
-0.041680563
-0.042448003
-0.005610904
-0.046285201
-0.058564234
-0.069308388
-0.086959497
-0.10077341
-0.109215245
-0.11688964
-0.119191959
-0.122261717
-0.129936113
-0.126866355
-0.123029157
-0.119191959
-0.114587322
-0.108447805
-0.107680366
-0.102308289
-0.093866453
-0.08235486
-0.080052541
-0.080819981
-0.078517662
-0.076982783
-0.080819981
-0.081587421
-0.08235486
-0.089261816
-0.088494377
-0.088494377
-0.083889739
-0.080052541
-0.071610706
-0.069308388
-0.059331673
-0.048587519
-0.045517761
-0.034006168
-0.036308487
-0.032471289
-0.03093641
-0.037843366
-0.04782008
-0.061633992
-0.069308388
-0.079285102
-0.083889739
-0.091564135
-0.093866453
-0.093099014
-0.088494377
-0.0831223
-0.074680464
-0.071610706
-0.059331673
-0.050122399
-0.044750322
-0.043982882
-0.042448003
-0.042448003
-0.043982882
-0.044750322
-0.045517761
-0.050122399
-0.04705264
-0.057796794
-0.062401432
-0.067773508
-0.069308388
-0.069308388
-0.070843267
-0.071610706
-0.066238629
-0.059331673
-0.051657278
-0.04782008
-0.040145684
-0.032471289
-0.027099212
-0.028634091
-0.024029454
-0.027099212
-0.03016897
-0.031703849
-0.041680563
-0.054727036
-0.068540948
-0.076215344
-0.079285102
-0.081587421
-0.080819981
-0.076215344
-0.068540948
-0.059331673
-0.052424717
-0.042448003
-0.034773607
-0.031703849
-0.03016897
-0.03016897
-0.028634091
-0.028634091
-0.02940153
-0.034006168
-0.037843366
-0.043982882
-0.046285201
-0.058564234
-0.067006069
-0.071610706
-0.080052541
-0.080819981
-0.077750223
-0.070843267
-0.058564234
-0.044750322
-0.034006168
-0.025564333
-0.018657377
-0.014820179
-0.007145783
-0.008680662
-0.017889937
-0.020192256
-0.020192256
-0.03093641
-0.036308487
-0.032471289
-0.057796794
-0.059331673
-0.063936311
-0.067006069
-0.06547119
-0.06470375
-0.057796794
-0.04705264
-0.040913124
-0.036308487
-0.027099212
-0.024029454
-0.024029454
-0.020192256
-0.020192256
-0.027866651
-0.037843366
-0.04705264
-0.059331673
-0.067006069
-0.070843267
-0.080819981
-0.080052541
-0.080819981
-0.073913025
-0.069308388
-0.057796794
-0.049354959
-0.042448003
-0.020959695
-0.03093641
-0.027099212
-0.024029454
-0.024029454
-0.03016897
-0.042448003
-0.054727036
-0.062401432
-0.077750223
-0.088494377
-0.095401333
-0.103843168
-0.103843168
-0.10077341
-0.098471091
-0.093866453
-0.084657179
-0.085424618
-0.085424618
-0.083889739
-0.08235486
-0.080819981
-0.079285102
-0.069308388
-0.068540948
-0.069308388
-0.069308388
-0.071610706
-0.08235486
-0.085424618
-0.094633893
-0.080052541
-0.096168772
-0.093866453
-0.092331574
-0.088494377
-0.083889739
-0.079285102
-0.070843267
-0.068540948
-0.062401432
-0.055494475
-0.058564234
-0.057796794
-0.059331673
-0.068540948
-0.069308388
-0.073145585
-0.070075827
-0.070075827
-0.070843267
-0.076215344
-0.080819981
-0.080819981
-0.077750223
-0.076215344
-0.071610706
-0.073145585
-0.069308388
-0.070075827
-0.069308388
-0.06470375
-0.080819981
-0.060866552
-0.067006069
-0.071610706
-0.074680464
-0.074680464
-0.080819981
-0.08235486
-0.091564135
-0.09923853
-0.10077341
-0.093866453
-0.092331574
-0.081587421
-0.074680464
-0.06547119
-0.058564234
-0.055494475
-0.048587519
-0.049354959
-0.049354959
-0.061633992
-0.063936311
-0.069308388
-0.070843267
-0.070843267
-0.076215344
-0.076215344
-0.0831223
-0.084657179
-0.090029256
-0.091564135
-0.089261816
-0.083889739
-0.073145585
-0.063936311
-0.057796794
-0.04705264
-0.044750322
-0.044750322
-0.046285201
-0.04705264
-0.060866552
-0.068540948
-0.076982783
-0.086959497
-0.095401333
-0.103843168
-0.11688964
-0.11688964
-0.11688964
-0.118424519
-0.104610607
-0.097703651
-0.088494377
-0.073913025
-0.063936311
-0.051657278
-0.043982882
-0.032471289
-0.028634091
-0.025564333
-0.032471289
-0.042448003
-0.049354959
-0.057796794
-0.073145585
-0.085424618
-0.093866453
-0.096168772
-0.093866453
-0.087726937
-0.081587421
-0.070075827
-0.059331673
-0.063936311
-0.049354959
-0.043982882
-0.036308487
-0.032471289
-0.028634091
-0.027866651
-0.027099212
-0.03016897
-0.028634091
-0.033238728
-0.034006168
-0.036308487
-0.032471289
-0.031703849
-0.020959695
-0.020192256
-0.018657377
-0.011750421
-0.009448102
-0.003308585
0.002830931
0.00513325
0.012040206
0.012807645
0.012807645
0.009737887
0.002830931
-0.005610904
-0.014820179
-0.020192256
-0.020959695
-0.025564333
-0.033238728
-0.036308487
-0.044750322
-0.048587519
-0.056261915
-0.061633992
-0.063936311
-0.069308388
-0.067773508
-0.061633992
-0.052424717
-0.046285201
-0.043982882
-0.037843366
-0.041680563
-0.044750322
-0.053192157
-0.067006069
-0.069308388
-0.086959497
-0.097703651
-0.109982684
-0.11765708
-0.118424519
-0.121494278
-0.118424519
-0.122261717
-0.118424519
-0.110750124
-0.104610607
-0.10077341
-0.091564135
-0.093099014
-0.092331574
-0.091564135
-0.101540849
-0.109982684
-0.122261717
-0.131470992
-0.142982585
-0.143750025
-0.142982585
-0.142982585
-0.136075629
-0.13454075
-0.127633794
-0.118424519
-0.102308289
-0.088494377
-0.071610706
-0.063936311
-0.057029355
-0.051657278
-0.048587519
-0.052424717
-0.060866552
-0.069308388
-0.080819981
-0.093866453
-0.102308289
-0.113819882
-0.120726838
-0.124564036
-0.123796596
-0.119959399
-0.116122201
-0.109215245
-0.107680366
-0.097703651
-0.093866453
-0.081587421
-0.076215344
-0.069308388
-0.068540948
-0.071610706
-0.073145585
-0.081587421
-0.081587421
-0.091564135
-0.093866453
-0.098471091
-0.102308289
-0.106145486
-0.101540849
-0.09923853
-0.096168772
-0.090029256
-0.0831223
-0.080819981
-0.073145585
-0.063936311
-0.046285201
-0.031703849
-0.010215541
0.00436581
0.014342524
0.02201692
0.03890059
0.053481942
0.077272568
0.101063195
0.127923579
0.163225799
0.197760579
0.236899997
0.274504535
0.322853227
0.365829843
0.410341337
0.456387711
0.500899205
0.54464326
0.569201326
0.586852436
0.599131469
0.602201227
0.602201227
0.601433788
0.599131469
0.586852436
0.573805964
0.554619975
0.525457271
0.494759689
0.45792259
0.417248293
0.37043448
0.316713711
0.269899898
0.221551206
0.175504832
0.135597975
0.084946964
0.049644744
0.007435568
-0.027866651
-0.056261915
-0.080819981
-0.098471091
-0.113052442
-0.108447805
-0.137610508
-0.142215146
-0.141447706
-0.130703552
-0.120726838
-0.109982684
-0.10077341
-0.089261816
-0.079285102
-0.070843267
-0.067773508
-0.060866552
-0.060099113
-0.060866552
-0.066238629
-0.069308388
-0.073913025
-0.083889739
-0.095401333
-0.103843168
-0.108447805
-0.112285003
-0.110750124
-0.109982684
-0.101540849
-0.093866453
-0.08235486
-0.070075827
-0.062401432
-0.059331673
-0.053192157
-0.04782008
-0.053959596
-0.057796794
-0.067773508
-0.070075827
-0.08235486
-0.091564135
-0.10077341
-0.108447805
-0.108447805
-0.118424519
-0.125331475
-0.120726838
-0.120726838
-0.118424519
-0.108447805
-0.093099014
-0.080819981
-0.067006069
-0.060866552
-0.050122399
-0.053192157
-0.059331673
-0.059331673
-0.068540948
-0.076982783
-0.091564135
-0.094633893
-0.109982684
-0.11688964
-0.118424519
-0.119959399
-0.118424519
-0.110750124
-0.102308289
-0.097703651
-0.093099014
-0.086192058
-0.079285102
-0.073145585
-0.071610706
-0.080052541
-0.085424618
-0.093099014
-0.096936212
-0.106912926
-0.111517563
-0.118424519
-0.118424519
-0.123796596
-0.122261717
-0.126866355
-0.129936113
-0.127633794
-0.123796596
-0.11688964
-0.111517563
-0.106145486
-0.098471091
-0.081587421
-0.069308388
-0.060866552
-0.053192157
-0.054727036
-0.057029355
-0.06547119
-0.073145585
-0.081587421
-0.090796695
-0.096168772
-0.094633893
-0.094633893
-0.092331574
-0.084657179
-0.080819981
-0.067773508
-0.062401432
-0.049354959
-0.044750322
-0.042448003
-0.045517761
-0.04705264
-0.053959596
-0.058564234
-0.059331673
-0.062401432
-0.056261915
-0.060099113
-0.057796794
-0.057796794
-0.052424717
-0.043215443
-0.031703849
-0.022494574
-0.011750421
0.000528612
0.011272766
0.018179722
0.028156437
0.028156437
0.028156437
0.032761074
0.029691316
0.034295953
0.029691316
0.033528513
0.034295953
0.032761074
0.037365711
0.034295953
0.035830832
0.040435469
0.045040107
0.053481942
0.065760975
0.076505129
0.086481843
0.09185392
0.101830634
0.102598074
0.110272469
0.107970151
0.102598074
0.098760876
0.097993436
0.088784162
0.083412085
0.080342327
0.078807447
0.078040008
0.078040008
0.083412085
0.094923678
0.101063195
0.107970151
0.122551502
0.136365414
0.140202612
0.152481645
0.154016524
0.154016524
0.150946766
0.14327237
0.135597975
0.12715614
0.111039909
0.102598074
0.09262136
0.088016722
0.078040008
0.077272568
0.076505129
0.080342327
0.09108648
0.103365513
0.114109667
0.12715614
0.137900294
0.148644447
0.152481645
0.154016524
0.157086283
0.153249085
0.149411887
0.140970052
0.12715614
0.107970151
0.097225997
0.080342327
0.073435371
0.064993535
0.058854019
0.063458656
0.065760975
0.077272568
0.080342327
0.088016722
0.094156239
0.099528316
0.102598074
0.102598074
0.097993436
0.089551601
0.078040008
0.064993535
0.054249382
0.045040107
0.026621557
0.018947162
0.005900689
0.00436581
0.00436581
0.012807645
0.018947162
0.027388997
0.028923876
0.028923876
0.029691316
0.034295953
0.031226195
0.030458755
0.029691316
0.02201692
0.015877404
0.002063491
-0.006378344
-0.020192256
-0.033238728
-0.040913124
-0.044750322
-0.04705264
-0.053959596
-0.048587519
-0.050889838
-0.04705264
-0.045517761
-0.033238728
-0.027099212
-0.019424816
-0.010215541
-0.008680662
0.00436581
-0.002541146
-0.007145783
-0.016355058
-0.024029454
-0.034006168
-0.044750322
-0.051657278
-0.06547119
-0.067773508
-0.069308388
-0.062401432
-0.053192157
-0.044750322
-0.033238728
-0.027866651
-0.020192256
-0.017889937
-0.019424816
-0.020192256
-0.020192256
-0.022494574
-0.031703849
-0.040913124
-0.050122399
-0.062401432
-0.069308388
-0.079285102
-0.080819981
-0.078517662
-0.076215344
-0.068540948
-0.053192157
-0.035541047
-0.020192256
-0.005610904
0.00513325
0.006668129
0.009737887
0.014342524
0.014342524
0.012040206
0.008203008
-0.000238827
-0.010215541
-0.021727135
-0.032471289
-0.044750322
-0.048587519
-0.055494475
-0.053192157
-0.052424717
-0.044750322
-0.037843366
-0.031703849
-0.020192256
-0.01251786
-0.003308585
0.002830931
0.003598371
0.002063491
0.002830931
-0.034773607
0.002063491
-0.004076025
-0.011750421
-0.018657377
-0.019424816
-0.018657377
-0.011750421
-0.004076025
0.000528612
0.007435568
0.011272766
0.018947162
0.026621557
0.028923876
0.03890059
0.045040107
0.054249382
0.053481942
0.045040107
0.030458755
0.018179722
0.00513325
-0.007145783
-0.017889937
-0.020192256
-0.017889937
-0.018657377
-0.010215541
-0.007145783
-0.020192256
0.017412283
0.029691316
0.046574986
0.058854019
0.066528415
0.07497025
0.075737689
0.067295854
0.054249382
0.044272667
0.028923876
0.012807645
0.00436581
-0.005610904
-0.009448102
-0.014820179
-0.014820179
-0.014820179
-0.014820179
-0.0132853
-0.005610904
0.000528612
0.009737887
0.025854118
0.036598272
0.049644744
0.058086579
0.060388898
0.054249382
0.045807546
0.048109865
0.028923876
0.025086678
0.014342524
0.006668129
-0.001006267
-0.007145783
-0.010982981
-0.015587618
-0.014820179
-0.011750421
-0.004843465
-0.002541146
0.000528612
0.00436581
0.009737887
0.012040206
0.014342524
0.014342524
0.009737887
0.00436581
-0.002541146
-0.008680662
-0.019424816
-0.020959695
-0.024796893
-0.020959695
-0.020192256
-0.015587618
-0.010982981
-0.011750421
-0.007145783
-0.004076025
-0.008680662
-0.004076025
-0.005610904
-0.001006267
0.000528612
-0.002541146
-0.006378344
-0.011750421
-0.020959695
-0.039378245
-0.04782008
-0.059331673
-0.067773508
-0.072378146
-0.076215344
-0.076982783
-0.073145585
-0.066238629
-0.058564234
-0.040913124
-0.022494574
-0.010215541
0.002830931
0.012040206
0.018179722
0.020482041
0.014342524
0.014342524
0.012807645
0.00513325
0.002063491
-0.008680662
-0.020192256
-0.027866651
-0.03016897
-0.03016897
-0.03016897
-0.020959695
-0.020192256
-0.01251786
-0.005610904
-0.000238827
0.001296052
0.00436581
0.006668129
-0.002541146
-0.007913223
-0.017889937
-0.019424816
-0.025564333
-0.034773607
-0.042448003
-0.046285201
-0.050122399
-0.053959596
-0.048587519
-0.045517761
-0.036308487
-0.022494574
-0.014820179
0.000528612
0.009737887
0.015877404
0.018947162
0.017412283
0.018947162
0.012807645
0.006668129
0.012807645
-0.007913223
-0.015587618
-0.024796893
-0.03093641
-0.040145684
-0.044750322
-0.044750322
-0.04705264
-0.042448003
-0.040913124
-0.042448003
-0.042448003
-0.039378245
-0.035541047
-0.034006168
-0.034006168
-0.043215443
-0.043982882
-0.051657278
-0.061633992
-0.070843267
-0.08235486
-0.090029256
-0.094633893
-0.096168772
-0.097703651
-0.09923853
-0.095401333
-0.093866453
-0.0831223
-0.070843267
-0.061633992
-0.046285201
-0.036308487
-0.027866651
-0.020192256
-0.015587618
-0.011750421
-0.015587618
-0.020192256
-0.03016897
-0.037075926
-0.044750322
-0.045517761
-0.052424717
-0.050889838
-0.04705264
-0.044750322
-0.041680563
-0.032471289
-0.020192256
-0.01251786
-0.027099212
0.00436581
0.005900689
0.015877404
0.015109964
0.015877404
0.014342524
0.010505327
0.006668129
0.002063491
-0.003308585
-0.010982981
-0.010982981
-0.01251786
-0.011750421
-0.011750421
-0.007913223
-0.005610904
-0.000238827
0.003598371
0.007435568
0.015877404
0.026621557
0.032761074
0.040435469
0.043505228
0.034295953
0.028923876
0.020482041
0.016644843
0.012040206
0.008970448
0.002830931
-0.003308585
-0.007145783
-0.007145783
-0.005610904
-0.003308585
0.00436581
0.00513325
0.008970448
0.014342524
0.015109964
0.020482041
0.019714601
0.018179722
0.014342524
0.008970448
0.00436581
-0.004843465
-0.009448102
-0.016355058
-0.015587618
-0.010215541
-0.003308585
0.002830931
0.008203008
0.019714601
0.026621557
0.03966803
0.044272667
0.049644744
0.055784261
0.067295854
0.054249382
0.044272667
0.031226195
0.016644843
0.00436581
-0.006378344
-0.015587618
-0.0132853
-0.017122498
-0.014820179
-0.014820179
-0.011750421
-0.010215541
-0.007913223
-0.001006267
0.001296052
0.002830931
0.005900689
0.006668129
0.012807645
0.013575085
0.014342524
0.006668129
0.00436581
-0.004076025
-0.009448102
-0.020192256
-0.028634091
-0.033238728
-0.036308487
-0.033238728
-0.040145684
-0.031703849
-0.024796893
-0.018657377
-0.009448102
-0.004076025
0.003598371
0.00513325
0.009737887
0.008203008
0.00436581
-0.002541146
-0.020192256
-0.03093641
-0.042448003
-0.048587519
-0.059331673
-0.067773508
-0.069308388
-0.061633992
-0.057796794
-0.051657278
-0.044750322
-0.026331772
-0.01251786
0.003598371
0.012807645
0.025086678
0.028156437
0.028156437
0.018947162
0.009737887
-0.004076025
-0.020192256
-0.027866651
-0.044750322
-0.054727036
-0.053192157
-0.057029355
-0.052424717
-0.04705264
-0.033238728
-0.008680662
0.016644843
0.052714502
0.09262136
0.141737491
0.190086184
0.244574392
0.290620766
0.33513226
0.372736799
0.4057367
0.431829645
0.454852832
0.473271381
0.497829447
0.507038722
0.550015337
0.569968766
0.594526832
0.616015139
0.634433689
0.64978248
0.654387117
0.651317359
0.642108084
0.620619777
0.592991953
0.556154854
0.507038722
0.456387711
0.402666942
0.350481052
0.298295162
0.24917903
0.200830337
0.163225799
0.12715614
0.088784162
0.058854019
0.035830832
0.009737887
-0.003308585
-0.020192256
-0.039378245
-0.043215443
-0.049354959
-0.055494475
-0.060866552
-0.06470375
-0.068540948
-0.070843267
-0.076982783
-0.076982783
-0.081587421
-0.084657179
-0.0831223
-0.079285102
-0.069308388
-0.061633992
-0.050122399
-0.037075926
-0.023262014
-0.018657377
-0.007913223
-0.002541146
0.00436581
0.00436581
0.008970448
0.00513325
0.00436581
-0.004843465
-0.014820179
-0.020192256
-0.031703849
-0.042448003
-0.04705264
-0.053959596
-0.056261915
-0.056261915
-0.048587519
-0.044750322
-0.039378245
-0.032471289
-0.024796893
-0.019424816
-0.006378344
0.003598371
0.012807645
0.019714601
0.023551799
0.024319239
0.016644843
0.008203008
0.002830931
-0.004076025
-0.006378344
-0.011750421
-0.009448102
-0.014820179
-0.015587618
-0.014820179
-0.009448102
-0.006378344
0.000528612
0.00436581
0.003598371
0.008970448
0.011272766
0.018947162
0.017412283
0.014342524
0.008970448
0.000528612
-0.004076025
-0.01251786
-0.020192256
-0.020192256
-0.024029454
-0.021727135
-0.018657377
-0.01251786
-0.010215541
-0.007145783
-0.009448102
-0.004076025
0.000528612
0.001296052
0.003598371
-0.003308585
-0.010215541
-0.017889937
-0.018657377
-0.020192256
-0.020959695
-0.024029454
-0.028634091
-0.036308487
-0.040913124
-0.043982882
-0.045517761
-0.04705264
-0.043982882
-0.034773607
-0.022494574
-0.014820179
-0.006378344
0.000528612
0.00513325
0.00436581
-0.003308585
-0.014820179
-0.025564333
-0.033238728
-0.037843366
-0.034773607
-0.040145684
-0.042448003
-0.035541047
-0.027866651
-0.020192256
-0.016355058
-0.002541146
0.00513325
0.012807645
0.02124948
0.027388997
0.031226195
0.034295953
0.03890059
0.033528513
0.028923876
0.018179722
0.00513325
-0.008680662
-0.017122498
-0.023262014
-0.021727135
-0.019424816
-0.018657377
-0.011750421
0.002830931
0.012807645
0.028156437
0.040435469
0.051947063
0.055784261
0.061156338
0.064993535
0.064993535
0.064993535
0.061923777
0.055784261
0.055784261
0.053481942
0.049644744
0.045040107
0.049644744
0.041970349
0.045807546
0.053481942
0.058854019
0.071133052
0.088784162
0.107970151
0.119481744
0.12715614
0.131760777
0.134063096
0.134063096
0.127923579
0.111807349
0.103365513
0.09185392
0.082644645
0.069598173
0.060388898
0.052714502
0.051179623
0.049644744
0.052714502
0.053481942
0.058854019
0.063458656
0.066528415
0.077272568
0.086481843
0.097993436
0.100295755
0.100295755
0.102598074
0.101830634
0.095691118
0.081877206
0.076505129
0.064993535
0.061156338
0.058086579
0.05731914
0.058854019
0.07497025
0.069598173
0.075737689
0.083412085
0.088784162
0.09185392
0.094923678
0.093388799
0.075737689
0.079574887
0.069598173
0.055784261
0.045040107
0.028923876
0.015877404
0.003598371
-0.010215541
-0.008680662
-0.011750421
-0.001006267
0.00436581
0.008970448
0.014342524
0.017412283
0.02201692
0.025854118
0.027388997
0.02201692
0.018947162
0.013575085
0.002830931
-0.010215541
-0.020192256
-0.033238728
-0.040145684
-0.034006168
-0.031703849
-0.024796893
-0.020192256
-0.020192256
-0.021727135
-0.028634091
-0.033238728
-0.039378245
-0.043982882
-0.041680563
-0.039378245
-0.03016897
-0.03016897
-0.03016897
-0.037843366
-0.040145684
-0.043982882
-0.051657278
-0.061633992
-0.069308388
-0.073913025
-0.076982783
-0.073145585
-0.039378245
-0.06470375
-0.063936311
-0.058564234
-0.054727036
-0.057796794
-0.058564234
-0.060866552
-0.061633992
-0.059331673
-0.063936311
-0.063936311
-0.063936311
-0.068540948
-0.070843267
-0.078517662
-0.086192058
-0.097703651
-0.101540849
-0.09923853
-0.093866453
-0.081587421
-0.069308388
-0.055494475
-0.043982882
-0.03093641
-0.021727135
-0.016355058
-0.007145783
-0.006378344
-0.006378344
-0.014820179
-0.020192256
-0.03016897
-0.043982882
-0.04705264
-0.059331673
-0.061633992
-0.067773508
-0.071610706
-0.069308388
-0.069308388
-0.06470375
-0.053192157
-0.044750322
-0.035541047
-0.026331772
-0.024029454
-0.020959695
-0.020192256
-0.020192256
-0.056261915
-0.033238728
-0.040913124
-0.044750322
-0.049354959
-0.051657278
-0.053192157
-0.054727036
-0.048587519
-0.042448003
-0.034773607
-0.03016897
-0.022494574
-0.019424816
-0.007145783
0.000528612
0.005900689
0.009737887
0.011272766
0.008970448
0.00436581
-0.008680662
-0.020192256
-0.036308487
-0.050122399
-0.060866552
-0.070843267
-0.079285102
-0.080052541
-0.076215344
-0.066238629
-0.058564234
-0.04705264
-0.034773607
-0.027099212
-0.014820179
-0.001006267
-0.000238827
0.00436581
0.006668129
0.002830931
0.002063491
-0.01251786
-0.017889937
-0.025564333
-0.032471289
-0.043215443
-0.048587519
-0.048587519
-0.049354959
-0.045517761
-0.040145684
-0.027099212
-0.020192256
-0.007145783
0.003598371
0.018179722
0.023551799
0.028923876
0.035830832
0.041970349
0.037365711
0.028923876
0.026621557
0.015877404
0.000528612
0.000528612
-0.010215541
-0.014820179
-0.009448102
-0.005610904
-0.001773706
0.006668129
0.015109964
0.02201692
0.031226195
0.037365711
0.051947063
0.055016821
0.0565517
0.055784261
0.053481942
0.048877305
0.040435469
0.028923876
0.016644843
0.008970448
0.00436581
0.002063491
-0.002541146
0.00436581
0.006668129
0.015877404
0.028156437
0.028923876
0.040435469
0.061923777
0.054249382
0.050412184
0.051179623
0.041970349
0.028923876
0.018179722
0.00436581
-0.014820179
-0.020959695
-0.022494574
-0.03093641
-0.03093641
-0.031703849
-0.024029454
-0.028634091
-0.02940153
-0.020192256
-0.046285201
-0.015587618
0.031226195
0.015877404
0.007435568
0.002830931
-0.010982981
-0.006378344
-0.020192256
-0.039378245
-0.074680464
-0.056261915
-0.019424816
-0.068540948
-0.068540948
-0.069308388
-0.063168871
-0.024796893
-0.044750322
-0.037843366
-0.03016897
-0.021727135
-0.044750322
0.002063491
-0.007145783
0.015877404
0.00436581
-0.001006267
-0.011750421
-0.022494574
-0.020192256
-0.034006168
-0.017889937
-0.051657278
-0.063936311
-0.06547119
-0.067773508
-0.048587519
-0.052424717
-0.033238728
-0.027099212
0.025086678
0.00436581
0.000528612
0.026621557
0.065760975
0.028923876
-0.016355058
0.00436581
-0.004076025
0.009737887
0.00436581
-0.018657377
-0.001006267
-0.007913223
-0.018657377
-0.020192256
-0.004843465
-0.006378344
0.008203008
-0.011750421
-0.055494475
-0.024029454
0.002063491
0.00436581
0.00436581
0.005900689
-0.010215541
0.003598371
0.000528612
-0.002541146
-0.006378344
-0.014820179
-0.002541146
-0.025564333
-0.020192256
-0.014820179
-0.015587618
-0.008680662
-0.004076025
0.003598371
0.005900689
0.009737887
0.028923876
0.018947162
0.016644843
0.02201692
0.020482041
0.015877404
0.00513325
-0.0132853
0.00436581
0.028923876
0.00436581
0.006668129
0.02124948
0.001296052
0.015877404
0.00436581
0.012807645
0.053481942
0.028923876
0.040435469
0.03966803
0.043505228
0.053481942
0.038133151
0.040435469
0.038133151
0.033528513
0.030458755
0.028923876
0.020482041
0.037365711
0.046574986
0.037365711
0.062691217
0.065760975
0.078040008
0.089551601
0.120249184
0.111807349
0.131760777
0.14480725
0.125621261
0.181644348
0.162458359
0.155551403
0.135597975
0.123318942
0.107970151
0.088784162
0.083412085
0.094923678
0.078040008
0.081109766
0.085714404
0.105667832
0.095691118
0.106435272
0.129458458
0.1263887
0.124853821
0.147109568
0.14403981
0.162458359
0.174737392
0.1263887
0.090319041
0.07497025
0.084946964
0.084946964
0.064226096
0.058854019
0.030458755
0.058854019
0.026621557
0.043505228
0.065760975
0.068830733
0.124853821
0.063458656
0.046574986
0.075737689
0.025086678
0.017412283
0.045040107
0.006668129
0.075737689
0.012807645
0.028923876
0.017412283
-0.020192256
-0.025564333
-0.023262014
-0.027099212
-0.066238629
-0.031703849
-0.044750322
-0.011750421
0.020482041
-0.020192256
-0.024796893
-0.039378245
0.003598371
0.001296052
0.02201692
0.032761074
0.000528612
-0.019424816
0.044272667
-0.005610904
-0.024029454
0.00436581
-0.036308487
-0.024796893
-0.03093641
-0.032471289
0.00436581
-0.020192256
-0.005610904
0.005900689
0.015877404
-0.004076025
0.009737887
0.028923876
0.028923876
0.030458755
0.028156437
0.026621557
-0.010215541
0.006668129
-0.009448102
-0.020192256
-0.032471289
-0.038610805
-0.035541047
-0.03016897
-0.02940153
-0.024029454
-0.020192256
-0.016355058
-0.017889937
-0.0132853
-0.009448102
-0.007145783
-0.008680662
-0.017889937
-0.022494574
-0.03016897
-0.033238728
-0.042448003
-0.044750322
-0.043215443
-0.040145684
-0.031703849
-0.008680662
0.011272766
0.03890059
0.069598173
0.102598074
0.137900294
0.173969953
0.209272173
0.249946469
0.287551008
0.322853227
0.348946173
0.378108876
0.407271579
0.433364524
0.466364425
0.488620172
0.507038722
0.543875821
0.561526931
0.576108282
0.583782678
0.589154755
0.585317557
0.570736205
0.556154854
0.531596788
0.496294568
0.460224909
0.421852931
0.373504238
0.322853227
0.262992942
0.206202414
0.150179327
0.094156239
0.053481942
0.014342524
-0.016355058
-0.043982882
-0.060866552
-0.070075827
-0.073913025
-0.079285102
-0.081587421
-0.081587421
-0.085424618
-0.086192058
-0.089261816
-0.089261816
-0.094633893
-0.094633893
-0.093099014
-0.093866453
-0.105378047
-0.116122201
-0.118424519
-0.119959399
-0.129936113
-0.129936113
-0.129936113
-0.126866355
-0.121494278
-0.111517563
-0.096168772
-0.0831223
-0.073145585
-0.062401432
-0.057029355
-0.04705264
-0.045517761
-0.04705264
-0.052424717
-0.057796794
-0.070075827
-0.085424618
-0.10077341
-0.104610607
-0.106912926
-0.10000597
-0.093866453
-0.08235486
-0.071610706
-0.06470375
-0.049354959
-0.046285201
-0.044750322
-0.044750322
-0.044750322
-0.044750322
-0.043982882
-0.040913124
-0.036308487
-0.043215443
-0.045517761
-0.067006069
-0.069308388
-0.084657179
-0.08235486
-0.086192058
-0.070075827
-0.057029355
-0.048587519
-0.035541047
-0.031703849
-0.031703849
-0.031703849
-0.033238728
-0.034006168
-0.036308487
-0.035541047
-0.039378245
-0.046285201
-0.051657278
-0.057796794
-0.063168871
-0.059331673
-0.057796794
-0.057796794
-0.058564234
-0.051657278
-0.044750322
-0.032471289
-0.022494574
-0.014052739
-0.005610904
0.003598371
0.011272766
0.012807645
0.009737887
0.003598371
-0.002541146
-0.010215541
-0.017889937
-0.03016897
-0.034006168
-0.042448003
-0.037843366
-0.037843366
-0.032471289
-0.03093641
-0.028634091
-0.024796893
-0.020192256
-0.01251786
0.002830931
0.00436581
0.012807645
0.011272766
0.00513325
0.000528612
-0.006378344
-0.011750421
-0.022494574
-0.031703849
-0.044750322
-0.052424717
-0.058564234
-0.06547119
-0.063936311
-0.055494475
-0.045517761
-0.033238728
-0.020959695
-0.008680662
0.00513325
0.009737887
0.020482041
0.020482041
0.02201692
0.018947162
0.012807645
-0.000238827
-0.009448102
-0.020192256
-0.03016897
-0.036308487
-0.036308487
-0.042448003
-0.032471289
-0.028634091
-0.023262014
-0.016355058
-0.011750421
-0.006378344
0.003598371
0.00513325
0.009737887
0.015109964
0.012040206
0.015109964
0.011272766
0.017412283
0.015109964
0.012807645
0.012807645
0.009737887
0.011272766
0.012807645
0.018179722
0.026621557
0.031993634
0.042737788
0.053481942
0.066528415
0.076505129
0.086481843
0.089551601
0.09262136
0.09108648
0.080342327
0.07420281
0.062691217
0.053481942
0.043505228
0.027388997
0.015877404
0.009737887
0.006668129
0.008970448
0.009737887
0.015109964
0.020482041
0.028923876
0.037365711
0.051179623
0.064226096
0.069598173
0.072667931
0.07420281
0.068063294
0.063458656
0.052714502
0.043505228
0.036598272
0.025086678
0.016644843
0.006668129
0.002063491
0.002063491
-0.002541146
-0.001006267
0.002063491
0.008970448
0.014342524
0.020482041
0.023551799
0.028156437
0.028923876
0.029691316
0.027388997
0.017412283
0.008970448
-0.003308585
-0.020192256
-0.032471289
-0.044750322
-0.056261915
-0.067773508
-0.076215344
-0.077750223
-0.079285102
-0.073145585
-0.063936311
-0.051657278
-0.043215443
-0.036308487
-0.027099212
-0.021727135
-0.024029454
-0.036308487
-0.046285201
-0.057796794
-0.06547119
-0.070075827
-0.071610706
-0.080052541
-0.089261816
-0.095401333
-0.103075728
-0.110750124
-0.113052442
-0.110750124
-0.098471091
-0.088494377
-0.080052541
-0.069308388
-0.06470375
-0.06547119
-0.060866552
-0.06470375
-0.061633992
-0.070075827
-0.079285102
-0.088494377
-0.091564135
-0.096168772
-0.093866453
-0.094633893
-0.095401333
-0.10077341
-0.093866453
-0.086192058
-0.072378146
-0.058564234
-0.046285201
-0.037075926
-0.033238728
-0.031703849
-0.033238728
-0.032471289
-0.039378245
-0.044750322
-0.057796794
-0.067006069
-0.073145585
-0.079285102
-0.08235486
-0.092331574
-0.092331574
-0.093099014
-0.092331574
-0.076215344
-0.073145585
-0.06547119
-0.059331673
-0.051657278
-0.044750322
-0.043215443
-0.040145684
-0.033238728
-0.03093641
-0.028634091
-0.03016897
-0.041680563
-0.053959596
-0.073913025
-0.080052541
-0.093099014
-0.097703651
-0.095401333
-0.096168772
-0.086959497
-0.08235486
-0.075447904
-0.069308388
-0.060866552
-0.053192157
-0.044750322
-0.039378245
-0.037843366
-0.039378245
-0.043982882
-0.051657278
-0.057796794
-0.063936311
-0.069308388
-0.073145585
-0.071610706
-0.069308388
-0.069308388
-0.059331673
-0.057796794
-0.053192157
-0.050122399
-0.044750322
-0.034006168
-0.03093641
-0.03093641
-0.028634091
-0.032471289
-0.033238728
-0.044750322
-0.049354959
-0.060866552
-0.069308388
-0.079285102
-0.085424618
-0.088494377
-0.089261816
-0.083889739
-0.080819981
-0.081587421
-0.074680464
-0.071610706
-0.068540948
-0.067773508
-0.063936311
-0.06470375
-0.067006069
-0.069308388
-0.074680464
-0.084657179
-0.093866453
-0.10077341
-0.107680366
-0.108447805
-0.115354761
-0.111517563
-0.116122201
-0.109982684
-0.108447805
-0.102308289
-0.093866453
-0.090029256
-0.083889739
-0.081587421
-0.076215344
-0.067006069
-0.057029355
-0.052424717
-0.051657278
-0.058564234
-0.057796794
-0.068540948
-0.076215344
-0.076982783
-0.080819981
-0.093099014
-0.093866453
-0.096936212
-0.098471091
-0.10077341
-0.101540849
-0.093866453
-0.085424618
-0.081587421
-0.075447904
-0.068540948
-0.06547119
-0.063936311
-0.060099113
-0.069308388
-0.070075827
-0.077750223
-0.083889739
-0.083889739
-0.093866453
-0.10000597
-0.10000597
-0.101540849
-0.094633893
-0.083889739
-0.076982783
-0.06547119
-0.057796794
-0.048587519
-0.039378245
-0.033238728
-0.027866651
-0.02940153
-0.031703849
-0.034006168
-0.044750322
-0.051657278
-0.061633992
-0.067006069
-0.076982783
-0.0831223
-0.089261816
-0.093866453
-0.093866453
-0.093866453
-0.085424618
-0.077750223
-0.069308388
-0.066238629
-0.057029355
-0.053192157
-0.048587519
-0.049354959
-0.049354959
-0.056261915
-0.067006069
-0.079285102
-0.093099014
-0.09923853
-0.111517563
-0.114587322
-0.119191959
-0.123029157
-0.118424519
-0.113052442
-0.104610607
-0.096168772
-0.083889739
-0.070843267
-0.061633992
-0.048587519
-0.048587519
-0.043982882
-0.044750322
-0.04782008
-0.049354959
-0.051657278
-0.051657278
-0.057796794
-0.059331673
-0.069308388
-0.076982783
-0.080819981
-0.083889739
-0.08235486
-0.080819981
-0.073145585
-0.067006069
-0.059331673
-0.051657278
-0.04782008
-0.039378245
-0.042448003
-0.037843366
-0.044750322
-0.04705264
-0.053192157
-0.053192157
-0.06547119
-0.069308388
-0.069308388
-0.070075827
-0.070075827
-0.070075827
-0.068540948
-0.069308388
-0.067773508
-0.067006069
-0.061633992
-0.060099113
-0.060866552
-0.056261915
-0.053192157
-0.067773508
-0.070075827
-0.083889739
-0.086959497
-0.095401333
-0.106912926
-0.113052442
-0.114587322
-0.11688964
-0.113819882
-0.116122201
-0.103075728
-0.092331574
-0.084657179
-0.070843267
-0.063936311
-0.052424717
-0.040913124
-0.036308487
-0.040913124
-0.044750322
-0.052424717
-0.066238629
-0.074680464
-0.086192058
-0.096936212
-0.107680366
-0.113819882
-0.114587322
-0.114587322
-0.113052442
-0.110750124
-0.09923853
-0.093866453
-0.090029256
-0.088494377
-0.081587421
-0.081587421
-0.081587421
-0.083889739
-0.093099014
-0.10077341
-0.107680366
-0.11688964
-0.116122201
-0.122261717
-0.126866355
-0.130703552
-0.130703552
-0.129168673
-0.126098915
-0.119959399
-0.113052442
-0.096936212
-0.090029256
-0.081587421
-0.073913025
-0.069308388
-0.076982783
-0.080052541
-0.093866453
-0.111517563
-0.125331475
-0.130703552
-0.137610508
-0.142982585
-0.145284904
-0.149889541
-0.145284904
-0.141447706
-0.133005871
-0.126098915
-0.118424519
-0.108447805
-0.098471091
-0.08235486
-0.078517662
-0.073145585
-0.074680464
-0.080052541
-0.091564135
-0.098471091
-0.108447805
-0.118424519
-0.13454075
-0.141447706
-0.1529593
-0.156029058
-0.161401135
-0.160633695
-0.159866256
-0.154494179
-0.149889541
-0.142982585
-0.133005871
-0.131470992
-0.122261717
-0.11765708
-0.108447805
-0.104610607
-0.104610607
-0.106145486
-0.116122201
-0.130703552
-0.142982585
-0.156796497
-0.170610409
-0.170610409
-0.174447607
-0.174447607
-0.167540651
-0.156796497
-0.145284904
-0.137610508
-0.123029157
-0.113819882
-0.103075728
-0.101540849
-0.094633893
-0.093866453
-0.094633893
-0.09923853
-0.102308289
-0.107680366
-0.107680366
-0.118424519
-0.126866355
-0.129936113
-0.138377948
-0.141447706
-0.13530819
-0.130703552
-0.119191959
-0.107680366
-0.093866453
-0.073145585
-0.066238629
-0.057029355
-0.052424717
-0.049354959
-0.053192157
-0.058564234
-0.063936311
-0.06547119
-0.069308388
-0.069308388
-0.073145585
-0.074680464
-0.080819981
-0.086192058
-0.083889739
-0.081587421
-0.076215344
-0.068540948
-0.053959596
-0.043982882
-0.036308487
-0.031703849
-0.022494574
-0.018657377
-0.018657377
-0.019424816
-0.022494574
-0.03093641
-0.040913124
-0.051657278
-0.068540948
-0.073145585
-0.080819981
-0.080819981
-0.08235486
-0.081587421
-0.074680464
-0.070075827
-0.06547119
-0.060866552
-0.059331673
-0.058564234
-0.06470375
-0.073145585
-0.08235486
-0.09923853
-0.114587322
-0.129936113
-0.139145388
-0.146819783
-0.15142442
-0.1529593
-0.155261618
-0.154494179
-0.156029058
-0.159098816
-0.154494179
-0.145284904
-0.129168673
-0.118424519
-0.106145486
-0.093099014
-0.086192058
-0.090796695
-0.10077341
-0.106912926
-0.11765708
-0.126098915
-0.13454075
-0.143750025
-0.150656981
-0.159098816
-0.159866256
-0.159866256
-0.157563937
-0.15142442
-0.144517464
-0.137610508
-0.132238431
-0.122261717
-0.119959399
-0.118424519
-0.119191959
-0.11765708
-0.120726838
-0.11688964
-0.122261717
-0.130703552
-0.139912827
-0.142982585
-0.147587223
-0.155261618
-0.157563937
-0.159866256
-0.159098816
-0.155261618
-0.150656981
-0.148354662
-0.142982585
-0.132238431
-0.126866355
-0.123029157
-0.11765708
-0.114587322
-0.108447805
-0.114587322
-0.121494278
-0.130703552
-0.131470992
-0.13530819
-0.142982585
-0.147587223
-0.142982585
-0.13454075
-0.126866355
-0.113052442
-0.096936212
-0.081587421
-0.062401432
-0.043215443
-0.020192256
0.00436581
0.029691316
0.063458656
0.098760876
0.135597975
0.172435074
0.212341931
0.249946469
0.28294637
0.319783469
0.355853129
0.392690227
0.427225008
0.464062106
0.496294568
0.530829348
0.553085095
0.569201326
0.589154755
0.596061711
0.59682915
0.592224513
0.574573403
0.550015337
0.507038722
0.470969063
0.414945975
0.361992645
0.30059748
0.238434876
0.176272272
0.114109667
0.075737689
0.037365711
0.005900689
-0.020959695
-0.042448003
-0.06547119
-0.080819981
-0.094633893
-0.105378047
-0.118424519
-0.121494278
-0.133005871
-0.140680267
-0.15142442
-0.162936014
-0.167540651
-0.179052245
-0.182122003
-0.190563838
-0.190563838
-0.189796398
-0.18672664
-0.179819684
-0.16984297
-0.163703453
-0.148354662
-0.133005871
-0.122261717
-0.113052442
-0.105378047
-0.10077341
-0.094633893
-0.096168772
-0.095401333
-0.107680366
-0.113819882
-0.119191959
-0.123029157
-0.126098915
-0.126098915
-0.123796596
-0.123029157
-0.120726838
-0.11765708
-0.114587322
-0.108447805
-0.096168772
-0.093866453
-0.093099014
-0.091564135
-0.0831223
-0.088494377
-0.093866453
-0.103075728
-0.11688964
-0.131470992
-0.141447706
-0.153726739
-0.155261618
-0.155261618
-0.15142442
-0.149889541
-0.1529593
-0.142982585
-0.139145388
-0.130703552
-0.121494278
-0.104610607
-0.094633893
-0.090796695
-0.0831223
-0.080819981
-0.083889739
-0.08235486
-0.0831223
-0.080819981
-0.081587421
-0.077750223
-0.076215344
-0.076982783
-0.073913025
-0.071610706
-0.069308388
-0.069308388
-0.069308388
-0.061633992
-0.058564234
-0.052424717
-0.045517761
-0.042448003
-0.036308487
-0.037843366
-0.044750322
-0.049354959
-0.057029355
-0.060866552
-0.070075827
-0.081587421
-0.089261816
-0.095401333
-0.101540849
-0.103843168
-0.101540849
-0.095401333
-0.093866453
-0.089261816
-0.081587421
-0.069308388
-0.062401432
-0.052424717
-0.044750322
-0.040145684
-0.042448003
-0.048587519
-0.054727036
-0.06470375
-0.073145585
-0.080052541
-0.085424618
-0.090029256
-0.089261816
-0.089261816
-0.089261816
-0.073145585
-0.062401432
-0.046285201
-0.039378245
-0.02940153
-0.019424816
-0.010215541
-0.003308585
-0.004076025
-0.004076025
-0.008680662
-0.017122498
-0.019424816
-0.020192256
-0.027099212
-0.028634091
-0.03016897
-0.03093641
-0.031703849
-0.032471289
-0.032471289
-0.024029454
-0.020192256
-0.010982981
-0.005610904
0.003598371
0.00436581
0.006668129
0.008970448
0.005900689
0.006668129
0.00436581
0.002063491
-0.004076025
-0.002541146
-0.001006267
0.003598371
0.00436581
0.017412283
0.031226195
0.045807546
0.064993535
0.079574887
0.094923678
0.107970151
0.1263887
0.137900294
0.140970052
0.140202612
0.137132854
0.127923579
0.122551502
0.10950503
0.102598074
0.101830634
0.098760876
0.097225997
0.097225997
0.098760876
0.101063195
0.104132953
0.122551502
0.134063096
0.150179327
0.154016524
0.159388601
0.163225799
0.163993239
0.163225799
0.160156041
0.152481645
0.139435173
0.130993338
0.125621261
0.125621261
0.122551502
0.125621261
0.124853821
0.124086381
0.128691019
0.127923579
0.131760777
0.140202612
0.151714206
0.159388601
0.163993239
0.170900195
0.165528118
0.156318843
0.150179327
0.131760777
0.122551502
0.102598074
0.09262136
0.078040008
0.071133052
0.064993535
0.061923777
0.061923777
0.069598173
0.069598173
0.071133052
0.077272568
0.079574887
0.078807447
0.088784162
0.089551601
0.083412085
0.077272568
0.071133052
0.061156338
0.049644744
0.03966803
0.028923876
0.028156437
0.018947162
0.017412283
0.008970448
0.014342524
0.017412283
0.024319239
0.026621557
0.029691316
0.032761074
0.040435469
0.045040107
0.045807546
0.042737788
0.034295953
0.028923876
0.015877404
0.00436581
-0.007145783
-0.016355058
-0.021727135
-0.028634091
-0.037075926
-0.034006168
-0.031703849
-0.028634091
-0.014820179
-0.004076025
0.002063491
0.008970448
0.012807645
0.016644843
0.02124948
0.023551799
0.02201692
0.02201692
0.012040206
0.00436581
-0.003308585
-0.020192256
-0.03093641
-0.044750322
-0.056261915
-0.06470375
-0.069308388
-0.068540948
-0.063936311
-0.053192157
-0.042448003
-0.028634091
-0.020192256
-0.009448102
-0.008680662
-0.000238827
0.002063491
0.00436581
0.000528612
-0.010982981
-0.021727135
-0.03016897
-0.040913124
-0.044750322
-0.043982882
-0.043982882
-0.037075926
-0.033238728
-0.031703849
-0.027099212
-0.024029454
-0.028634091
-0.027099212
-0.021727135
-0.011750421
-0.007145783
0.003598371
0.00436581
0.00513325
0.003598371
-0.003308585
-0.010215541
-0.020192256
-0.024796893
-0.03093641
-0.032471289
-0.034773607
-0.037843366
-0.033238728
-0.020959695
-0.016355058
-0.000238827
0.00513325
0.014342524
0.028923876
0.034295953
0.03890059
0.035830832
0.028156437
0.020482041
0.006668129
-0.004076025
-0.024796893
-0.031703849
-0.043982882
-0.048587519
-0.048587519
-0.044750322
-0.040145684
-0.031703849
-0.022494574
-0.015587618
-0.005610904
0.008970448
0.015877404
0.025086678
0.027388997
0.028156437
0.02124948
0.016644843
0.006668129
-0.005610904
-0.01251786
-0.020192256
-0.022494574
-0.020192256
-0.022494574
-0.020192256
-0.020192256
-0.010982981
-0.002541146
0.003598371
0.008203008
0.015877404
0.025086678
0.028923876
0.028156437
0.029691316
0.028156437
0.028156437
0.015877404
0.008970448
0.008203008
0.00436581
-0.002541146
-0.007145783
-0.010215541
-0.010215541
-0.010215541
-0.007913223
-0.004843465
-0.001006267
0.005900689
0.014342524
0.025086678
0.026621557
0.028923876
0.028923876
0.023551799
0.008970448
0.002830931
-0.009448102
-0.018657377
-0.025564333
-0.034773607
-0.040145684
-0.037843366
-0.033238728
-0.027866651
-0.014820179
-0.002541146
0.00513325
0.016644843
0.025854118
0.032761074
0.035830832
0.029691316
0.020482041
0.00513325
-0.008680662
-0.020959695
-0.032471289
-0.043215443
-0.044750322
-0.044750322
-0.041680563
-0.031703849
-0.024029454
-0.016355058
-0.005610904
0.00436581
0.011272766
0.017412283
0.02201692
0.02201692
0.025086678
0.020482041
0.015109964
0.005900689
-0.000238827
-0.009448102
-0.021727135
-0.027099212
-0.032471289
-0.036308487
-0.034006168
-0.036308487
-0.034006168
-0.031703849
-0.027866651
-0.020192256
-0.011750421
-0.004843465
0.00436581
0.00513325
0.012040206
0.009737887
0.00436581
0.000528612
-0.010215541
-0.020192256
-0.027099212
-0.040913124
-0.042448003
-0.046285201
-0.048587519
-0.046285201
-0.044750322
-0.039378245
-0.025564333
-0.020192256
-0.010215541
-0.002541146
0.00436581
0.008203008
0.009737887
0.005900689
0.000528612
-0.002541146
-0.005610904
-0.006378344
-0.0132853
-0.010215541
-0.020192256
-0.024796893
-0.021727135
-0.023262014
-0.014052739
-0.010215541
0.000528612
0.00436581
0.015109964
0.020482041
0.029691316
0.035830832
0.040435469
0.041970349
0.043505228
0.03890059
0.038133151
0.032761074
0.029691316
0.031226195
0.029691316
0.028923876
0.029691316
0.025854118
0.025086678
0.024319239
0.028923876
0.028923876
0.032761074
0.043505228
0.051179623
0.058086579
0.064993535
0.068063294
0.065760975
0.066528415
0.064993535
0.054249382
0.049644744
0.042737788
0.037365711
0.032761074
0.029691316
0.035830832
0.043505228
0.045807546
0.053481942
0.053481942
0.058086579
0.064993535
0.07420281
0.086481843
0.09262136
0.095691118
0.095691118
0.089551601
0.080342327
0.078040008
0.070365612
0.064226096
0.052714502
0.040435469
0.032761074
0.028923876
0.027388997
0.023551799
0.031993634
0.03966803
0.046574986
0.053481942
0.05731914
0.062691217
0.070365612
0.077272568
0.080342327
0.082644645
0.080342327
0.078807447
0.070365612
0.064226096
0.05731914
0.053481942
0.053481942
0.052714502
0.052714502
0.053481942
0.05731914
0.063458656
0.070365612
0.080342327
0.090319041
0.100295755
0.104900392
0.107202711
0.110272469
0.105667832
0.102598074
0.094156239
0.088016722
0.080342327
0.073435371
0.065760975
0.064226096
0.054249382
0.052714502
0.052714502
0.052714502
0.055784261
0.064993535
0.077272568
0.086481843
0.101063195
0.104132953
0.120249184
0.12715614
0.131760777
0.130993338
0.12715614
0.120249184
0.106435272
0.100295755
0.09262136
0.082644645
0.077272568
0.073435371
0.069598173
0.068830733
0.064993535
0.068063294
0.071133052
0.073435371
0.078807447
0.084179524
0.085714404
0.088016722
0.078807447
0.069598173
0.058086579
0.041970349
0.028923876
0.015877404
0.00436581
-0.002541146
-0.008680662
-0.008680662
-0.004076025
0.001296052
0.002830931
0.003598371
0.008203008
0.013575085
0.015877404
0.018179722
0.012807645
0.008203008
0.002063491
-0.009448102
-0.027099212
-0.043982882
-0.051657278
-0.069308388
-0.080052541
-0.0831223
-0.089261816
-0.093866453
-0.097703651
-0.096936212
-0.092331574
-0.079285102
-0.068540948
-0.055494475
-0.044750322
-0.039378245
-0.034773607
-0.03016897
-0.033238728
-0.037075926
-0.04782008
-0.049354959
-0.048587519
-0.053192157
-0.055494475
-0.059331673
-0.06547119
-0.069308388
-0.06470375
-0.053959596
-0.04705264
-0.044750322
-0.042448003
-0.043982882
-0.042448003
-0.034773607
-0.035541047
-0.040913124
-0.043982882
-0.045517761
-0.051657278
-0.061633992
-0.068540948
-0.074680464
-0.0831223
-0.090796695
-0.093866453
-0.093866453
-0.093866453
-0.090029256
-0.086959497
-0.086959497
-0.080819981
-0.076215344
-0.069308388
-0.06547119
-0.062401432
-0.059331673
-0.06547119
-0.069308388
-0.070075827
-0.078517662
-0.083889739
-0.088494377
-0.089261816
-0.084657179
-0.069308388
-0.045517761
-0.018657377
0.014342524
0.055784261
0.101063195
0.159388601
0.212341931
0.262992942
0.309806755
0.352015931
0.386550711
0.411876216
0.438736601
0.45792259
0.473271381
0.488620172
0.491689931
0.495527128
0.495527128
0.495527128
0.494759689
0.494759689
0.491689931
0.484015535
0.470201623
0.451015634
0.421852931
0.382713513
0.341271777
0.289085887
0.23076048
0.175504832
0.114109667
0.064993535
0.02124948
-0.015587618
-0.048587519
-0.080819981
-0.108447805
-0.142215146
-0.167540651
-0.190563838
-0.208214948
-0.218959102
-0.224331179
-0.22202886
-0.22202886
-0.216656783
-0.215889343
-0.212819585
-0.212052146
-0.216656783
-0.22202886
-0.227400937
-0.235842772
-0.241214849
-0.241214849
-0.245052047
-0.243517168
-0.241214849
-0.235842772
-0.232773014
-0.228935816
-0.227400937
-0.22126142
-0.217424223
-0.211284706
-0.202842871
-0.200540552
-0.192098717
-0.188261519
-0.192098717
-0.199773113
-0.20437775
-0.216656783
-0.228168376
-0.236610212
-0.240447409
-0.241214849
-0.241214849
-0.232773014
-0.228935816
-0.216656783
-0.209749827
-0.199773113
-0.195935915
-0.192098717
-0.191331278
-0.182889442
-0.18672664
-0.192098717
-0.197470794
-0.20514519
-0.215121904
-0.224331179
-0.234307893
-0.235842772
-0.236610212
-0.235075332
-0.234307893
-0.228935816
-0.226633497
-0.216656783
-0.216656783
-0.208214948
-0.205912629
-0.199773113
-0.192098717
-0.184424322
-0.182122003
-0.176749926
-0.175215047
-0.179052245
-0.18672664
-0.197470794
-0.201307992
-0.205912629
-0.209749827
-0.215889343
-0.214354464
-0.208982387
-0.193633596
-0.182889442
-0.167540651
-0.155261618
-0.145284904
-0.13530819
-0.131470992
-0.126098915
-0.123029157
-0.126866355
-0.132238431
-0.142215146
-0.154494179
-0.167540651
-0.183656882
-0.194401036
-0.205912629
-0.216656783
-0.216656783
-0.216656783
-0.211284706
-0.207447508
-0.202842871
-0.195935915
-0.190563838
-0.176749926
-0.164470893
-0.150656981
-0.142982585
-0.138377948
-0.142982585
-0.146819783
-0.167540651
-0.179819684
-0.192098717
-0.199773113
-0.205912629
-0.197470794
-0.193633596
-0.18749408
-0.174447607
-0.153726739
-0.139912827
-0.125331475
-0.108447805
-0.096168772
-0.090796695
-0.091564135
-0.091564135
-0.093866453
-0.097703651
-0.106145486
-0.11765708
-0.130703552
-0.139145388
-0.142982585
-0.15219186
-0.156029058
-0.15142442
-0.146819783
-0.133005871
-0.123796596
-0.110750124
-0.093866453
-0.08235486
-0.069308388
-0.060866552
-0.053959596
-0.046285201
-0.04782008
-0.050889838
-0.057796794
-0.066238629
-0.069308388
-0.071610706
-0.077750223
-0.079285102
-0.076982783
-0.074680464
-0.069308388
-0.063936311
-0.04705264
-0.032471289
-0.024029454
-0.010982981
-0.004843465
0.000528612
-0.003308585
-0.004076025
-0.004076025
-0.006378344
-0.011750421
-0.019424816
-0.020192256
-0.03016897
-0.037075926
-0.043215443
-0.044750322
-0.044750322
-0.035541047
-0.022494574
-0.0132853
0.000528612
0.00436581
0.012807645
0.015877404
0.015877404
0.015877404
0.015109964
0.012040206
0.014342524
0.007435568
0.008970448
0.008203008
0.005900689
0.003598371
0.002830931
-0.008680662
-0.011750421
-0.017889937
-0.016355058
-0.0132853
-0.011750421
0.000528612
0.005900689
0.014342524
0.02124948
0.020482041
0.020482041
0.016644843
0.012807645
0.008203008
0.002063491
-0.008680662
-0.020192256
-0.022494574
-0.027099212
-0.032471289
-0.032471289
-0.027866651
-0.024029454
-0.021727135
-0.017889937
-0.008680662
-0.005610904
-0.004843465
-0.004076025
0.000528612
-0.001006267
-0.002541146
-0.014820179
-0.023262014
-0.037075926
-0.045517761
-0.054727036
-0.062401432
-0.066238629
-0.070075827
-0.071610706
-0.070843267
-0.070843267
-0.069308388
-0.066238629
-0.06470375
-0.056261915
-0.045517761
-0.044750322
-0.033238728
-0.037843366
-0.040913124
-0.045517761
-0.051657278
-0.067006069
-0.076215344
-0.086192058
-0.093866453
-0.094633893
-0.10077341
-0.103075728
-0.102308289
-0.103843168
-0.096168772
-0.091564135
-0.076982783
-0.06547119
-0.04705264
-0.036308487
-0.021727135
-0.017889937
-0.0132853
-0.011750421
-0.020192256
-0.023262014
-0.034773607
-0.043982882
-0.054727036
-0.069308388
-0.080819981
-0.088494377
-0.096168772
-0.097703651
-0.093866453
-0.0831223
-0.077750223
-0.069308388
-0.061633992
-0.057796794
-0.043215443
-0.032471289
-0.024029454
-0.016355058
-0.020192256
-0.018657377
-0.023262014
-0.033238728
-0.043982882
-0.067773508
-0.06547119
-0.075447904
-0.076215344
-0.070843267
-0.067006069
-0.044750322
-0.031703849
-0.017889937
-0.004076025
0.008970448
0.026621557
0.034295953
0.043505228
0.046574986
0.041970349
0.036598272
0.025854118
0.018179722
0.012807645
0.00513325
0.002063491
-0.008680662
-0.01251786
-0.009448102
-0.011750421
-0.008680662
-0.003308585
0.000528612
0.002063491
0.00513325
0.013575085
0.017412283
0.015877404
0.015109964
0.006668129
0.000528612
-0.007145783
-0.016355058
-0.03093641
-0.034006168
-0.040913124
-0.044750322
-0.040145684
-0.03016897
-0.020192256
-0.007145783
0.00436581
0.012807645
0.018947162
0.025086678
0.028923876
0.026621557
0.02201692
0.018947162
0.016644843
0.008970448
0.002830931
-0.008680662
-0.020192256
-0.02940153
-0.034773607
-0.034006168
-0.036308487
-0.033238728
-0.018657377
-0.007145783
0.00513325
0.018947162
0.028923876
0.041970349
0.051179623
0.05731914
0.058854019
0.05731914
0.055784261
0.043505228
0.029691316
0.019714601
0.017412283
0.007435568
0.003598371
-0.002541146
-0.002541146
0.00513325
0.017412283
0.034295953
0.053481942
0.070365612
0.086481843
0.103365513
0.114109667
0.1263887
0.12715614
0.122551502
0.107970151
0.09185392
0.078040008
0.063458656
0.054249382
0.046574986
0.035830832
0.033528513
0.028923876
0.032761074
0.034295953
0.046574986
0.054249382
0.066528415
0.077272568
0.080342327
0.083412085
0.088016722
0.089551601
0.085714404
0.078040008
0.072667931
0.060388898
0.049644744
0.031226195
0.025086678
0.015877404
0.018947162
0.025086678
0.028923876
0.040435469
0.049644744
0.058854019
0.068063294
0.068830733
0.077272568
0.078040008
0.079574887
0.081877206
0.078040008
0.071133052
0.058854019
0.054249382
0.03966803
0.033528513
0.025086678
0.024319239
0.016644843
0.014342524
0.015877404
0.018947162
0.026621557
0.030458755
0.043505228
0.055016821
0.064993535
0.071133052
0.076505129
0.075737689
0.069598173
0.067295854
0.067295854
0.064993535
0.058086579
0.048109865
0.034295953
0.028156437
0.024319239
0.016644843
0.013575085
0.015109964
0.015877404
0.016644843
0.018179722
0.028923876
0.034295953
0.03966803
0.045807546
0.048877305
0.051179623
0.041970349
0.036598272
0.034295953
0.031226195
0.028923876
0.028923876
0.030458755
0.028923876
0.037365711
0.034295953
0.036598272
0.032761074
0.037365711
0.045040107
0.049644744
0.060388898
0.065760975
0.073435371
0.078807447
0.080342327
0.075737689
0.067295854
0.058854019
0.052714502
0.03890059
0.032761074
0.034295953
0.042737788
0.049644744
0.058086579
0.068063294
0.080342327
0.094923678
0.104132953
0.114109667
0.1263887
0.130993338
0.134830535
0.132528217
0.130993338
0.121784063
0.107970151
0.101063195
0.088784162
0.088016722
0.085714404
0.083412085
0.088016722
0.089551601
0.098760876
0.103365513
0.112574788
0.125621261
0.135597975
0.14327237
0.154016524
0.159388601
0.163225799
0.164760678
0.160156041
0.150179327
0.141737491
0.128691019
0.114109667
0.101830634
0.09262136
0.086481843
0.089551601
0.094156239
0.101830634
0.10950503
0.125621261
0.134830535
0.147109568
0.162458359
0.167830436
0.175504832
0.175504832
0.175504832
0.173969953
0.164760678
0.158621162
0.151714206
0.14327237
0.128691019
0.120249184
0.114109667
0.103365513
0.102598074
0.103365513
0.111039909
0.120249184
0.12715614
0.136365414
0.149411887
0.151714206
0.157086283
0.154016524
0.155551403
0.155551403
0.151714206
0.14480725
0.137132854
0.129458458
0.121784063
0.106435272
0.09108648
0.078040008
0.069598173
0.05731914
0.053481942
0.053481942
0.062691217
0.069598173
0.07420281
0.078040008
0.080342327
0.083412085
0.085714404
0.089551601
0.084946964
0.085714404
0.080342327
0.078040008
0.077272568
0.071133052
0.066528415
0.063458656
0.067295854
0.070365612
0.071133052
0.079574887
0.086481843
0.090319041
0.099528316
0.102598074
0.106435272
0.111039909
0.114109667
0.107970151
0.095691118
0.081877206
0.07420281
0.064993535
0.061923777
0.05731914
0.054249382
0.053481942
0.053481942
0.061156338
0.064226096
0.068830733
0.077272568
0.083412085
0.089551601
0.094156239
0.097993436
0.101830634
0.103365513
0.102598074
0.098760876
0.088016722
0.077272568
0.068063294
0.058086579
0.051947063
0.049644744
0.046574986
0.053481942
0.05731914
0.065760975
0.077272568
0.088016722
0.09262136
0.102598074
0.106435272
0.107970151
0.110272469
0.111039909
0.120249184
0.123318942
0.120249184
0.122551502
0.114109667
0.123318942
0.123318942
0.130993338
0.146342129
0.163993239
0.189318744
0.217714008
0.258388304
0.299062601
0.340504337
0.390387909
0.421852931
0.470201623
0.507038722
0.546945579
0.583782678
0.61448026
0.639038326
0.651317359
0.660526634
0.665131271
0.665898711
0.663596392
0.660526634
0.658991755
0.654387117
0.645177843
0.626759293
0.605270985
0.58071292
0.546945579
0.507038722
0.467131865
0.421085491
0.371969359
0.323620667
0.274504535
0.226923283
0.183946667
0.138667733
0.098760876
0.064993535
0.032761074
0.008970448
-0.007913223
-0.020959695
-0.024796893
-0.03016897
-0.024029454
-0.015587618
-0.007145783
0.00436581
0.011272766
0.016644843
0.025086678
0.026621557
0.026621557
0.026621557
0.020482041
0.019714601
0.012807645
0.009737887
0.007435568
0.006668129
0.012040206
0.016644843
0.02201692
0.030458755
0.040435469
0.048877305
0.053481942
0.052714502
0.052714502
0.055016821
0.064226096
0.058854019
0.055784261
0.053481942
0.043505228
0.03966803
0.032761074
0.031226195
0.028923876
0.028923876
0.028923876
0.036598272
0.043505228
0.054249382
0.058854019
0.065760975
0.075737689
0.080342327
0.09108648
0.095691118
0.101830634
0.102598074
0.094923678
0.086481843
0.077272568
0.058854019
0.045807546
0.032761074
0.026621557
0.020482041
0.015877404
0.015877404
0.015877404
0.024319239
0.037365711
0.046574986
0.054249382
0.067295854
0.071133052
0.07420281
0.072667931
0.076505129
0.070365612
0.064993535
0.054249382
0.049644744
0.040435469
0.028923876
0.02124948
0.015877404
0.005900689
0.006668129
0.007435568
0.018179722
0.028156437
0.040435469
0.048109865
0.051179623
0.052714502
0.053481942
0.055016821
0.053481942
0.048877305
0.034295953
0.026621557
0.009737887
-0.000238827
-0.011750421
-0.020959695
-0.024796893
-0.022494574
-0.020192256
-0.010215541
0.003598371
0.02124948
0.031993634
0.048109865
0.063458656
0.07420281
0.079574887
0.086481843
0.089551601
0.09108648
0.083412085
0.077272568
0.064993535
0.053481942
0.037365711
0.02201692
0.015877404
0.014342524
0.015109964
0.018179722
0.028923876
0.045807546
0.058854019
0.071133052
0.084946964
0.095691118
0.104900392
0.112574788
0.112574788
0.111039909
0.104132953
0.095691118
0.09108648
0.081877206
0.076505129
0.07420281
0.068063294
0.063458656
0.066528415
0.070365612
0.078040008
0.089551601
0.101830634
0.114109667
0.12715614
0.132528217
0.140202612
0.14403981
0.14480725
0.141737491
0.129458458
0.114109667
0.107970151
0.099528316
0.095691118
0.098760876
0.09262136
0.094156239
0.095691118
0.097225997
0.102598074
0.114109667
0.124853821
0.137132854
0.150946766
0.158621162
0.163225799
0.165528118
0.166295557
0.163225799
0.157086283
0.152481645
0.147877008
0.137132854
0.129458458
0.1263887
0.114109667
0.112574788
0.114109667
0.114109667
0.114109667
0.123318942
0.127923579
0.132528217
0.140970052
0.147109568
0.151714206
0.157086283
0.160156041
0.159388601
0.152481645
0.146342129
0.138667733
0.12715614
0.120249184
0.107970151
0.102598074
0.107970151
0.111039909
0.111039909
0.120249184
0.12715614
0.127923579
0.134063096
0.137900294
0.14480725
0.142504931
0.137132854
0.127923579
0.114109667
0.104900392
0.09262136
0.081877206
0.064993535
0.054249382
0.046574986
0.040435469
0.034295953
0.028156437
0.028923876
0.030458755
0.036598272
0.046574986
0.053481942
0.061923777
0.063458656
0.064993535
0.064993535
0.058854019
0.053481942
0.043505228
0.028923876
0.015877404
-0.004076025
-0.017889937
-0.033238728
-0.04782008
-0.053192157
-0.057796794
-0.055494475
-0.052424717
-0.044750322
-0.036308487
-0.027099212
-0.016355058
-0.007913223
0.002063491
0.00436581
0.003598371
0.002063491
-0.005610904
-0.011750421
-0.024029454
-0.037075926
-0.048587519
-0.057029355
-0.067006069
-0.063936311
-0.057029355
-0.051657278
-0.042448003
-0.03016897
-0.020192256
-0.016355058
-0.010215541
-0.006378344
-0.004076025
-0.000238827
-0.006378344
-0.005610904
-0.018657377
-0.020192256
-0.03093641
-0.036308487
-0.044750322
-0.054727036
-0.061633992
-0.067773508
-0.067006069
-0.061633992
-0.053192157
-0.042448003
-0.028634091
-0.019424816
-0.007145783
-0.004076025
0.003598371
0.006668129
0.00436581
-0.000238827
-0.009448102
-0.018657377
-0.031703849
-0.044750322
-0.053959596
-0.06470375
-0.071610706
-0.070843267
-0.069308388
-0.071610706
-0.074680464
-0.069308388
-0.067006069
-0.059331673
-0.048587519
-0.039378245
-0.033238728
-0.028634091
-0.020959695
-0.020192256
-0.020192256
-0.028634091
-0.031703849
-0.042448003
-0.043982882
-0.046285201
-0.054727036
-0.059331673
-0.057029355
-0.053959596
-0.044750322
-0.028634091
-0.017889937
-0.008680662
-0.005610904
0.002063491
0.002063491
0.002830931
0.002063491
-0.002541146
-0.011750421
-0.017889937
-0.024029454
-0.036308487
-0.044750322
-0.051657278
-0.052424717
-0.057796794
-0.055494475
-0.043982882
-0.042448003
-0.032471289
-0.025564333
-0.020192256
-0.014820179
-0.005610904
0.003598371
0.012040206
0.012807645
0.016644843
0.014342524
0.012040206
0.002063491
-0.002541146
-0.009448102
-0.016355058
-0.020192256
-0.027099212
-0.027866651
-0.03016897
-0.025564333
-0.020192256
-0.017889937
-0.008680662
-0.001006267
0.005900689
0.008203008
0.006668129
0.003598371
-0.004076025
-0.009448102
-0.016355058
-0.020192256
-0.019424816
-0.017889937
-0.017889937
-0.018657377
-0.022494574
-0.022494574
-0.020959695
-0.024029454
-0.019424816
-0.020192256
-0.011750421
0.000528612
0.00436581
0.005900689
0.016644843
0.015877404
0.014342524
0.014342524
0.011272766
0.007435568
0.006668129
0.00436581
0.002063491
-0.001006267
-0.006378344
-0.008680662
-0.008680662
-0.007145783
-0.008680662
-0.004076025
0.002063491
0.001296052
0.007435568
0.007435568
0.012807645
0.016644843
0.023551799
0.025854118
0.02201692
0.020482041
0.016644843
0.009737887
0.002063491
-0.006378344
-0.008680662
-0.01251786
-0.0132853
-0.014820179
-0.015587618
-0.008680662
-0.007913223
-0.004076025
0.002830931
0.008203008
0.014342524
0.017412283
0.015109964
0.012040206
0.009737887
0.00513325
0.00436581
0.003598371
-0.000238827
-0.007913223
-0.014820179
-0.017889937
-0.019424816
-0.014820179
-0.014820179
-0.007145783
-0.000238827
0.002063491
0.00513325
0.011272766
0.011272766
0.013575085
0.014342524
0.005900689
-0.003308585
-0.018657377
-0.03016897
-0.046285201
-0.057796794
-0.069308388
-0.068540948
-0.062401432
-0.057029355
-0.051657278
-0.041680563
-0.034006168
-0.024029454
-0.020192256
-0.01251786
-0.004843465
0.00436581
0.00513325
0.006668129
0.007435568
0.00436581
-0.002541146
-0.010215541
-0.014820179
-0.020192256
-0.028634091
-0.042448003
-0.046285201
-0.051657278
-0.052424717
-0.051657278
-0.044750322
-0.036308487
-0.032471289
-0.027099212
-0.020959695
-0.014820179
-0.014820179
-0.011750421
-0.018657377
-0.020959695
-0.028634091
-0.040145684
-0.043215443
-0.051657278
-0.053192157
-0.054727036
-0.051657278
-0.04705264
-0.046285201
-0.040913124
-0.031703849
-0.024796893
-0.021727135
-0.018657377
-0.016355058
-0.0132853
-0.017889937
-0.021727135
-0.03093641
-0.037843366
-0.04705264
-0.051657278
-0.066238629
-0.068540948
-0.073145585
-0.081587421
-0.089261816
-0.087726937
-0.092331574
-0.083889739
-0.079285102
-0.062401432
-0.046285201
-0.037843366
-0.027866651
-0.022494574
-0.020192256
-0.019424816
-0.022494574
-0.027099212
-0.037075926
-0.044750322
-0.059331673
-0.068540948
-0.076215344
-0.081587421
-0.081587421
-0.080819981
-0.080819981
-0.074680464
-0.069308388
-0.059331673
-0.04705264
-0.037075926
-0.027099212
-0.020192256
-0.017889937
-0.020959695
-0.024796893
-0.033238728
-0.041680563
-0.04705264
-0.059331673
-0.062401432
-0.067006069
-0.069308388
-0.069308388
-0.068540948
-0.06547119
-0.056261915
-0.040145684
-0.020192256
-0.005610904
0.006668129
0.014342524
0.016644843
0.025086678
0.028923876
0.028156437
0.02124948
0.014342524
0.003598371
-0.008680662
-0.020192256
-0.03016897
-0.043982882
-0.048587519
-0.048587519
-0.044750322
-0.040145684
-0.032471289
-0.022494574
-0.019424816
-0.006378344
0.00436581
0.008203008
0.018947162
0.024319239
0.028156437
0.028923876
0.034295953
0.034295953
0.02201692
0.012807645
0.00436581
-0.005610904
-0.007145783
-0.010215541
0.000528612
0.003598371
0.013575085
0.020482041
0.02201692
0.026621557
0.025854118
0.025854118
0.028923876
0.018947162
0.012807645
0.00436581
-0.006378344
-0.015587618
-0.027099212
-0.039378245
-0.048587519
-0.057796794
-0.06547119
-0.06547119
-0.068540948
-0.061633992
-0.059331673
-0.056261915
-0.052424717
-0.04705264
-0.045517761
-0.044750322
-0.046285201
-0.050122399
-0.052424717
-0.060866552
-0.069308388
-0.077750223
-0.086959497
-0.093866453
-0.097703651
-0.107680366
-0.109982684
-0.11688964
-0.110750124
-0.103843168
-0.09923853
-0.083889739
-0.069308388
-0.062401432
-0.057029355
-0.054727036
-0.056261915
-0.056261915
-0.060866552
-0.062401432
-0.068540948
-0.073913025
-0.076215344
-0.084657179
-0.091564135
-0.094633893
-0.093866453
-0.093099014
-0.091564135
-0.081587421
-0.077750223
-0.069308388
-0.060866552
-0.053192157
-0.044750322
-0.039378245
-0.033238728
-0.034773607
-0.032471289
-0.039378245
-0.043215443
-0.051657278
-0.063936311
-0.06470375
-0.058564234
-0.056261915
-0.051657278
-0.044750322
-0.040913124
-0.032471289
-0.027866651
-0.018657377
-0.011750421
-0.002541146
0.003598371
0.002063491
-0.003308585
-0.008680662
-0.016355058
-0.020192256
-0.027866651
-0.034773607
-0.045517761
-0.048587519
-0.04705264
-0.042448003
-0.023262014
-0.000238827
0.028923876
0.061923777
0.102598074
0.150179327
0.199295458
0.24917903
0.295225403
0.344341535
0.390387909
0.430294766
0.467131865
0.494759689
0.507038722
0.531596788
0.543875821
0.550015337
0.553085095
0.549247898
0.5454107
0.540806062
0.531596788
0.507038722
0.502434084
0.490155052
0.470201623
0.439504041
0.400364623
0.348946173
0.299062601
0.247644151
0.188551305
0.139435173
0.085714404
0.03966803
-0.003308585
-0.039378245
-0.075447904
-0.105378047
-0.127633794
-0.145284904
-0.155261618
-0.159866256
-0.163703453
-0.160633695
-0.159866256
-0.155261618
-0.156796497
-0.15142442
-0.150656981
-0.144517464
-0.138377948
-0.129936113
-0.119959399
-0.123029157
-0.125331475
-0.127633794
-0.130703552
-0.138377948
-0.137610508
-0.130703552
-0.123796596
-0.109215245
-0.097703651
-0.090796695
-0.076982783
-0.069308388
-0.059331673
-0.050122399
-0.036308487
-0.028634091
-0.024029454
-0.020192256
-0.022494574
-0.027099212
-0.034006168
-0.045517761
-0.053192157
-0.063936311
-0.070075827
-0.080052541
-0.0831223
-0.091564135
-0.089261816
-0.08235486
-0.079285102
-0.073145585
-0.066238629
-0.057796794
-0.056261915
-0.051657278
-0.051657278
-0.050122399
-0.054727036
-0.055494475
-0.052424717
-0.057796794
-0.057796794
-0.066238629
-0.06547119
-0.057796794
-0.057029355
-0.057029355
-0.048587519
-0.046285201
-0.043215443
-0.040913124
-0.034006168
-0.033238728
-0.033238728
-0.039378245
-0.044750322
-0.054727036
-0.062401432
-0.069308388
-0.078517662
-0.087726937
-0.091564135
-0.097703651
-0.102308289
-0.106145486
-0.09923853
-0.093866453
-0.086192058
-0.069308388
-0.058564234
-0.044750322
-0.027866651
-0.017889937
-0.014820179
-0.010982981
-0.019424816
-0.028634091
-0.046285201
-0.06470375
-0.080819981
-0.093099014
-0.098471091
-0.107680366
-0.116122201
-0.113819882
-0.103843168
-0.094633893
-0.090029256
-0.077750223
-0.069308388
-0.057029355
-0.043215443
-0.032471289
-0.020192256
-0.014820179
-0.004843465
-0.004076025
-0.008680662
-0.011750421
-0.020192256
-0.027866651
-0.037843366
-0.043215443
-0.044750322
-0.051657278
-0.04705264
-0.046285201
-0.040913124
-0.031703849
-0.022494574
-0.019424816
-0.014820179
-0.0132853
-0.006378344
-0.002541146
0.003598371
0.00436581
0.003598371
0.000528612
-0.003308585
-0.004076025
-0.004843465
-0.005610904
0.000528612
0.002063491
0.00436581
0.005900689
0.012040206
0.016644843
0.023551799
0.034295953
0.042737788
0.053481942
0.055784261
0.054249382
0.053481942
0.045807546
0.031226195
0.025086678
0.012040206
0.005900689
0.00436581
0.008970448
0.012040206
0.02124948
0.031226195
0.040435469
0.053481942
0.064993535
0.072667931
0.078807447
0.088016722
0.09108648
0.097993436
0.098760876
0.101830634
0.095691118
0.088784162
0.083412085
0.077272568
0.069598173
0.065760975
0.064993535
0.064993535
0.065760975
0.072667931
0.075737689
0.082644645
0.088784162
0.09262136
0.094923678
0.100295755
0.102598074
0.101830634
0.097993436
0.101830634
0.098760876
0.094923678
0.086481843
0.078040008
0.071133052
0.064993535
0.058854019
0.051947063
0.050412184
0.053481942
0.0565517
0.062691217
0.068063294
0.078040008
0.085714404
0.094156239
0.101830634
0.104132953
0.104900392
0.103365513
0.097993436
0.088016722
0.075737689
0.061923777
0.045807546
0.028923876
0.012807645
-0.000238827
-0.006378344
-0.01251786
-0.004076025
0.003598371
0.006668129
0.014342524
0.025086678
0.025854118
0.029691316
0.031226195
0.028923876
0.017412283
0.008203008
0.000528612
-0.0132853
-0.027866651
-0.039378245
-0.051657278
-0.060866552
-0.060866552
-0.063936311
-0.063936311
-0.057796794
-0.051657278
-0.044750322
-0.039378245
-0.033238728
-0.033238728
-0.032471289
-0.024029454
-0.026331772
-0.027866651
-0.031703849
-0.036308487
-0.040913124
-0.045517761
-0.057029355
-0.061633992
-0.066238629
-0.06547119
-0.066238629
-0.055494475
-0.044750322
-0.031703849
-0.022494574
-0.017889937
-0.010215541
-0.010215541
-0.010215541
-0.010982981
-0.017889937
-0.020192256
-0.021727135
-0.021727135
-0.027866651
-0.032471289
-0.034773607
-0.042448003
-0.044750322
-0.053192157
-0.057796794
-0.057796794
-0.059331673
-0.053192157
-0.044750322
-0.039378245
-0.032471289
-0.020959695
-0.017889937
-0.010215541
-0.008680662
-0.011750421
-0.018657377
-0.020192256
-0.031703849
-0.043982882
-0.059331673
-0.069308388
-0.081587421
-0.081587421
-0.083889739
-0.086192058
-0.08235486
-0.081587421
-0.069308388
-0.058564234
-0.046285201
-0.034773607
-0.020959695
-0.01251786
-0.004076025
0.002830931
0.00436581
0.000528612
-0.002541146
-0.010215541
-0.018657377
-0.022494574
-0.03016897
-0.036308487
-0.037075926
-0.031703849
-0.027866651
-0.017889937
-0.005610904
0.00436581
0.012807645
0.025086678
0.032761074
0.040435469
0.042737788
0.03966803
0.034295953
0.025086678
0.012807645
0.00436581
-0.003308585
-0.016355058
-0.024796893
-0.032471289
-0.036308487
-0.036308487
-0.033238728
-0.020959695
-0.007913223
0.003598371
0.012807645
0.017412283
0.026621557
0.030458755
0.034295953
0.028923876
0.029691316
0.02201692
0.015109964
0.005900689
-0.005610904
-0.017889937
-0.028634091
-0.036308487
-0.043982882
-0.044750322
-0.044750322
-0.040145684
-0.03093641
-0.020192256
-0.003308585
0.006668129
0.015109964
0.02201692
0.027388997
0.025086678
0.015877404
0.011272766
0.00436581
-0.002541146
-0.007913223
-0.010982981
-0.015587618
-0.017889937
-0.01251786
-0.006378344
-0.003308585
0.003598371
0.00436581
0.008203008
0.015877404
0.02124948
0.028156437
0.037365711
0.045807546
0.049644744
0.051179623
0.052714502
0.052714502
0.051179623
0.046574986
0.03890059
0.035830832
0.028923876
0.025086678
0.028156437
0.028923876
0.028923876
0.028156437
0.028923876
0.034295953
0.03890059
0.035830832
0.03890059
0.043505228
0.043505228
0.041970349
0.03966803
0.034295953
0.028923876
0.020482041
0.012807645
0.005900689
-0.000238827
-0.005610904
-0.004076025
-0.003308585
0.008203008
0.020482041
0.029691316
0.040435469
0.052714502
0.061156338
0.068830733
0.07420281
0.07420281
0.069598173
0.061156338
0.052714502
0.034295953
0.02124948
0.005900689
-0.002541146
-0.011750421
-0.014820179
-0.015587618
-0.008680662
-0.006378344
0.00436581
0.00513325
0.02201692
0.028923876
0.036598272
0.043505228
0.051947063
0.053481942
0.045040107
0.035830832
0.020482041
0.006668129
-0.008680662
-0.020959695
-0.031703849
-0.037075926
-0.033238728
-0.031703849
-0.024796893
-0.017889937
-0.007913223
0.003598371
0.011272766
0.020482041
0.028923876
0.033528513
0.043505228
0.045807546
0.040435469
0.033528513
0.029691316
0.023551799
0.018179722
0.017412283
0.012807645
0.00436581
-0.005610904
-0.004843465
-0.006378344
-0.002541146
0.000528612
0.005900689
0.011272766
0.02124948
0.028923876
0.036598272
0.037365711
0.03890059
0.03966803
0.032761074
0.025086678
0.016644843
0.008203008
-0.000238827
-0.008680662
-0.008680662
-0.006378344
0.000528612
0.012807645
0.028923876
0.042737788
0.054249382
0.068063294
0.076505129
0.085714404
0.094156239
0.095691118
0.09262136
0.090319041
0.081877206
0.068063294
0.063458656
0.055784261
0.052714502
0.051179623
0.043505228
0.045807546
0.047342426
0.048877305
0.055016821
0.061923777
0.068830733
0.078040008
0.083412085
0.095691118
0.101063195
0.104900392
0.112574788
0.107970151
0.106435272
0.100295755
0.09185392
0.083412085
0.07420281
0.064993535
0.053481942
0.048109865
0.037365711
0.031226195
0.028923876
0.034295953
0.045040107
0.055784261
0.063458656
0.076505129
0.081877206
0.088016722
0.089551601
0.083412085
0.078040008
0.076505129
0.07420281
0.070365612
0.067295854
0.066528415
0.064226096
0.065760975
0.070365612
0.071133052
0.077272568
0.081877206
0.086481843
0.090319041
0.094923678
0.101830634
0.104132953
0.106435272
0.105667832
0.102598074
0.089551601
0.083412085
0.067295854
0.053481942
0.042737788
0.028923876
0.02201692
0.018179722
0.016644843
0.018947162
0.023551799
0.034295953
0.041970349
0.051179623
0.063458656
0.07420281
0.088784162
0.094923678
0.101830634
0.097225997
0.087249283
0.078040008
0.072667931
0.061156338
0.054249382
0.046574986
0.041970349
0.037365711
0.037365711
0.034295953
0.036598272
0.03966803
0.044272667
0.046574986
0.040435469
0.044272667
0.042737788
0.041970349
0.040435469
0.031226195
0.028156437
0.020482041
0.016644843
0.016644843
0.018947162
0.012807645
0.017412283
0.012807645
0.012040206
0.014342524
0.019714601
0.02201692
0.028923876
0.037365711
0.041970349
0.053481942
0.05731914
0.064993535
0.067295854
0.063458656
0.05731914
0.053481942
0.051179623
0.046574986
0.03890059
0.028923876
0.017412283
0.006668129
-0.000238827
-0.006378344
-0.011750421
-0.011750421
-0.010215541
-0.005610904
-0.001006267
0.002063491
0.00436581
0.009737887
0.008203008
0.012040206
0.009737887
0.011272766
0.00436581
0.00436581
-0.004076025
-0.01251786
-0.010215541
-0.002541146
0.008970448
0.023551799
0.03890059
0.065760975
0.089551601
0.127923579
0.163225799
0.198528019
0.236899997
0.275271975
0.316713711
0.352015931
0.378108876
0.4057367
0.433364524
0.45792259
0.482480656
0.503201524
0.525457271
0.543875821
0.550015337
0.559224612
0.56229437
0.567666447
0.570736205
0.569201326
0.568433887
0.560759491
0.548480458
0.530829348
0.500899205
0.470201623
0.424155249
0.375039118
0.316713711
0.255318546
0.199295458
0.134830535
0.078040008
0.040435469
-0.002541146
-0.031703849
-0.053959596
-0.069308388
-0.086192058
-0.091564135
-0.093866453
-0.093866453
-0.093866453
-0.088494377
-0.084657179
-0.083889739
-0.084657179
-0.090029256
-0.093099014
-0.10077341
-0.111517563
-0.11688964
-0.116122201
-0.116122201
-0.116122201
-0.105378047
-0.093866453
-0.080819981
-0.062401432
-0.043215443
-0.03093641
-0.017889937
-0.008680662
0.003598371
0.00436581
0.000528612
0.000528612
-0.004076025
0.000528612
0.000528612
-0.003308585
-0.001006267
0.003598371
0.005900689
0.016644843
0.030458755
0.049644744
0.071133052
0.089551601
0.106435272
0.127923579
0.14327237
0.152481645
0.16169092
0.164760678
0.164760678
0.162458359
0.158621162
0.150179327
0.137132854
0.122551502
0.103365513
0.094156239
0.082644645
0.081109766
0.083412085
0.083412085
0.087249283
0.097993436
0.107202711
0.124853821
0.131760777
0.137132854
0.147877008
0.151714206
0.155551403
0.158621162
0.151714206
0.140970052
0.130993338
0.114109667
0.110272469
0.101063195
0.09262136
0.088784162
0.083412085
0.078807447
0.080342327
0.086481843
0.09185392
0.101830634
0.122551502
0.134063096
0.14480725
0.147877008
0.149411887
0.147109568
0.140202612
0.132528217
0.121784063
0.110272469
0.101830634
0.095691118
0.089551601
0.080342327
0.075737689
0.070365612
0.067295854
0.067295854
0.068830733
0.073435371
0.075737689
0.079574887
0.083412085
0.087249283
0.084946964
0.086481843
0.076505129
0.064993535
0.055784261
0.045807546
0.034295953
0.024319239
0.015877404
0.016644843
0.014342524
0.015877404
0.018179722
0.02124948
0.023551799
0.028156437
0.031226195
0.037365711
0.041970349
0.051179623
0.0565517
0.058086579
0.049644744
0.040435469
0.028923876
0.019714601
0.008970448
0.00436581
-0.001006267
0.002063491
0.00513325
0.011272766
0.02124948
0.031993634
0.046574986
0.055016821
0.075737689
0.081877206
0.095691118
0.102598074
0.106435272
0.103365513
0.101830634
0.09108648
0.082644645
0.069598173
0.05731914
0.049644744
0.043505228
0.040435469
0.037365711
0.043505228
0.052714502
0.065760975
0.083412085
0.102598074
0.1263887
0.14480725
0.152481645
0.160156041
0.163225799
0.164760678
0.155551403
0.150946766
0.138667733
0.129458458
0.124853821
0.114109667
0.114109667
0.10950503
0.111039909
0.110272469
0.122551502
0.12715614
0.135597975
0.147877008
0.151714206
0.156318843
0.158621162
0.155551403
0.16169092
0.153249085
0.149411887
0.137132854
0.127923579
0.125621261
0.120249184
0.114109667
0.111039909
0.107970151
0.107202711
0.10950503
0.114109667
0.1263887
0.12715614
0.129458458
0.132528217
0.138667733
0.14403981
0.146342129
0.14327237
0.137900294
0.125621261
0.112574788
0.095691118
0.080342327
0.065760975
0.053481942
0.043505228
0.033528513
0.028923876
0.029691316
0.029691316
0.030458755
0.043505228
0.054249382
0.064993535
0.067295854
0.076505129
0.078807447
0.078040008
0.077272568
0.071133052
0.058854019
0.049644744
0.043505228
0.028923876
0.026621557
0.020482041
0.014342524
0.016644843
0.015109964
0.017412283
0.020482041
0.016644843
0.015877404
0.017412283
0.020482041
0.028923876
0.028923876
0.027388997
0.015877404
0.006668129
-0.006378344
-0.0132853
-0.019424816
-0.023262014
-0.032471289
-0.032471289
-0.034006168
-0.039378245
-0.034006168
-0.036308487
-0.03093641
-0.027866651
-0.020192256
-0.020192256
-0.020192256
-0.014820179
-0.0132853
-0.017889937
-0.024029454
-0.036308487
-0.045517761
-0.057029355
-0.066238629
-0.071610706
-0.079285102
-0.0831223
-0.083889739
-0.089261816
-0.089261816
-0.084657179
-0.076215344
-0.063936311
-0.053192157
-0.043215443
-0.036308487
-0.03016897
-0.03093641
-0.036308487
-0.043982882
-0.055494475
-0.069308388
-0.0831223
-0.10077341
-0.11688964
-0.124564036
-0.130703552
-0.131470992
-0.13454075
-0.136075629
-0.133005871
-0.133005871
-0.129168673
-0.128401234
-0.123796596
-0.119959399
-0.123029157
-0.13454075
-0.140680267
-0.145284904
-0.150656981
-0.163703453
-0.177517365
-0.182122003
-0.191331278
-0.192866157
-0.195935915
-0.192098717
-0.18672664
-0.175215047
-0.164470893
-0.149122102
-0.13454075
-0.125331475
-0.119191959
-0.118424519
-0.118424519
-0.118424519
-0.118424519
-0.130703552
-0.139145388
-0.153726739
-0.167540651
-0.179819684
-0.192098717
-0.202842871
-0.207447508
-0.211284706
-0.216656783
-0.216656783
-0.212819585
-0.206680069
-0.203610311
-0.193633596
-0.189796398
-0.18749408
-0.180587124
-0.179819684
-0.176749926
-0.178284805
-0.182122003
-0.192098717
-0.20514519
-0.218959102
-0.230470695
-0.243517168
-0.258865959
-0.265772915
-0.265772915
-0.265772915
-0.258098519
-0.245819486
-0.241214849
-0.228935816
-0.216656783
-0.205912629
-0.192866157
-0.191331278
-0.188261519
-0.183656882
-0.179819684
-0.179819684
-0.18672664
-0.192866157
-0.202842871
-0.215889343
-0.228935816
-0.245819486
-0.258865959
-0.278819387
-0.278819387
-0.282656585
-0.282656585
-0.278819387
-0.253493882
-0.23891253
-0.216656783
-0.193633596
-0.177517365
-0.162936014
-0.146052344
-0.139912827
-0.130703552
-0.126866355
-0.130703552
-0.132238431
-0.132238431
-0.128401234
-0.118424519
-0.107680366
-0.090029256
-0.073145585
-0.054727036
-0.043215443
-0.027866651
-0.01251786
0.001296052
0.008203008
0.016644843
0.016644843
0.016644843
0.009737887
0.00436581
-0.005610904
-0.018657377
-0.03093641
-0.037075926
-0.034773607
-0.037075926
-0.03093641
-0.033238728
-0.033238728
-0.02940153
-0.020959695
-0.018657377
-0.015587618
-0.014820179
-0.003308585
0.006668129
0.016644843
0.025086678
0.025086678
0.028156437
0.028923876
0.028156437
0.028923876
0.028923876
0.027388997
0.02201692
0.02201692
0.025086678
0.035830832
0.048109865
0.061156338
0.070365612
0.083412085
0.088784162
0.094156239
0.102598074
0.100295755
0.101063195
0.094156239
0.080342327
0.068830733
0.05731914
0.053481942
0.041970349
0.03890059
0.038133151
0.040435469
0.048877305
0.058086579
0.07420281
0.083412085
0.100295755
0.121784063
0.135597975
0.147877008
0.155551403
0.166295557
0.172435074
0.177039711
0.176272272
0.173969953
0.16169092
0.153249085
0.147877008
0.138667733
0.134063096
0.132528217
0.134830535
0.138667733
0.141737491
0.150179327
0.153249085
0.168597876
0.175504832
0.181644348
0.190853623
0.193923381
0.200062898
0.200062898
0.1962257
0.193923381
0.189318744
0.186248986
0.184714107
0.183946667
0.187783865
0.193155942
0.200062898
0.203132656
0.211574491
0.217714008
0.228458162
0.232295359
0.236899997
0.242272074
0.246109271
0.242272074
0.236132557
0.226155843
0.21387681
0.207737294
0.200830337
0.195458261
0.191621063
0.189318744
0.193155942
0.193923381
0.201597777
0.218481447
0.233062799
0.24917903
0.262225502
0.278341733
0.289085887
0.295225403
0.292155645
0.286016129
0.275271975
0.262992942
0.24841159
0.225388403
0.212341931
0.200830337
0.193155942
0.189318744
0.191621063
0.200062898
0.203132656
0.212341931
0.223853524
0.225388403
0.226923283
0.229993041
0.233830239
0.233062799
0.226155843
0.225388403
0.217714008
0.212341931
0.199295458
0.184714107
0.172435074
0.159388601
0.147109568
0.129458458
0.114109667
0.106435272
0.097225997
0.098760876
0.102598074
0.114109667
0.130993338
0.147109568
0.169365316
0.169365316
0.176272272
0.176272272
0.173969953
0.167830436
0.159388601
0.151714206
0.141737491
0.137900294
0.130993338
0.12715614
0.124086381
0.112574788
0.104132953
0.098760876
0.094923678
0.089551601
0.085714404
0.086481843
0.088016722
0.09185392
0.09108648
0.088016722
0.079574887
0.069598173
0.058854019
0.053481942
0.049644744
0.049644744
0.051947063
0.051179623
0.051947063
0.054249382
0.064993535
0.071133052
0.072667931
0.078807447
0.078807447
0.078040008
0.082644645
0.085714404
0.089551601
0.089551601
0.086481843
0.081877206
0.078040008
0.064993535
0.054249382
0.048877305
0.038133151
0.031993634
0.029691316
0.029691316
0.026621557
0.031226195
0.037365711
0.036598272
0.041202909
0.041970349
0.043505228
0.045807546
0.048877305
0.049644744
0.048109865
0.043505228
0.036598272
0.027388997
0.012040206
0.00436581
-0.002541146
-0.007145783
-0.007145783
-0.006378344
-0.008680662
-0.000238827
0.006668129
0.012807645
0.02201692
0.031226195
0.034295953
0.041202909
0.042737788
0.041970349
0.037365711
0.031226195
0.028156437
0.016644843
0.009737887
-0.000238827
-0.007913223
-0.020192256
-0.03016897
-0.039378245
-0.044750322
-0.048587519
-0.044750322
-0.037075926
-0.024796893
-0.014820179
-0.004076025
0.00436581
0.006668129
0.009737887
0.005900689
-0.008680662
-0.020959695
-0.035541047
-0.053192157
-0.068540948
-0.078517662
-0.088494377
-0.094633893
-0.103075728
-0.104610607
-0.108447805
-0.104610607
-0.103843168
-0.10077341
-0.095401333
-0.086192058
-0.071610706
-0.056261915
-0.037843366
-0.01251786
0.016644843
0.042737788
0.077272568
0.104132953
0.141737491
0.169365316
0.205434975
0.24841159
0.286016129
0.332062502
0.372736799
0.408806458
0.443341238
0.470201623
0.491689931
0.507038722
0.531596788
0.540038623
0.543875821
0.537736304
0.524689832
0.496294568
0.463294667
0.42262037
0.373504238
0.320550909
0.260690623
0.201597777
0.150946766
0.095691118
0.049644744
0.00513325
-0.037843366
-0.072378146
-0.103843168
-0.129168673
-0.154494179
-0.174447607
-0.191331278
-0.20437775
-0.215889343
-0.224331179
-0.230470695
-0.23967997
-0.243517168
-0.252726442
-0.251191563
-0.242749728
-0.228935816
-0.209749827
-0.18672664
-0.166005772
-0.148354662
-0.128401234
-0.106145486
-0.093099014
-0.080052541
-0.074680464
-0.076215344
-0.080819981
-0.091564135
-0.102308289
-0.109982684
-0.123796596
-0.129936113
-0.142215146
-0.139145388
-0.143750025
-0.142215146
-0.141447706
-0.131470992
-0.118424519
-0.104610607
-0.088494377
-0.070075827
-0.057029355
-0.043982882
-0.034773607
-0.034773607
-0.033238728
-0.040145684
-0.043982882
-0.04782008
-0.054727036
-0.054727036
-0.059331673
-0.061633992
-0.063936311
-0.061633992
-0.056261915
-0.055494475
-0.04705264
-0.041680563
-0.031703849
-0.023262014
-0.020192256
-0.008680662
-0.010215541
-0.009448102
-0.014820179
-0.018657377
-0.025564333
-0.040145684
-0.049354959
-0.057029355
-0.06470375
-0.060866552
-0.063936311
-0.06547119
-0.058564234
-0.04705264
-0.045517761
-0.040913124
-0.036308487
-0.03093641
-0.031703849
-0.032471289
-0.031703849
-0.027866651
-0.03016897
-0.042448003
-0.044750322
-0.054727036
-0.061633992
-0.070843267
-0.081587421
-0.081587421
-0.083889739
-0.083889739
-0.081587421
-0.076982783
-0.073145585
-0.070075827
-0.067006069
-0.056261915
-0.053192157
-0.053192157
-0.046285201
-0.048587519
-0.055494475
-0.058564234
-0.062401432
-0.069308388
-0.069308388
-0.076215344
-0.081587421
-0.085424618
-0.091564135
-0.092331574
-0.092331574
-0.091564135
-0.08235486
-0.069308388
-0.056261915
-0.044750322
-0.03016897
-0.016355058
0.000528612
0.00513325
0.008970448
0.00436581
-0.001773706
-0.003308585
-0.005610904
-0.008680662
-0.020959695
-0.03093641
-0.042448003
-0.044750322
-0.046285201
-0.044750322
-0.039378245
-0.025564333
-0.020192256
-0.001006267
0.007435568
0.015109964
0.023551799
0.028156437
0.028923876
0.025086678
0.018947162
0.015109964
0.009737887
0.008970448
0.002830931
-0.000238827
-0.003308585
-0.000238827
0.00513325
0.017412283
0.031226195
0.046574986
0.064993535
0.073435371
0.079574887
0.083412085
0.088016722
0.086481843
0.081877206
0.078040008
0.071133052
0.064993535
0.05731914
0.054249382
0.053481942
0.053481942
0.053481942
0.052714502
0.058854019
0.068063294
0.078040008
0.083412085
0.09262136
0.101830634
0.107202711
0.114109667
0.12715614
0.127923579
0.1263887
0.123318942
0.120249184
0.107970151
0.104132953
0.098760876
0.09185392
0.086481843
0.080342327
0.07420281
0.067295854
0.068063294
0.068063294
0.068830733
0.078040008
0.077272568
0.083412085
0.084946964
0.088784162
0.090319041
0.086481843
0.083412085
0.078040008
0.064993535
0.055784261
0.042737788
0.034295953
0.027388997
0.02201692
0.018947162
0.025086678
0.029691316
0.034295953
0.041970349
0.053481942
0.061156338
0.061156338
0.061923777
0.058854019
0.055016821
0.051947063
0.040435469
0.028156437
0.014342524
0.008970448
-0.003308585
-0.008680662
-0.017889937
-0.022494574
-0.024029454
-0.022494574
-0.020192256
-0.010215541
-0.004076025
0.002830931
0.00436581
0.011272766
0.012040206
0.008970448
0.00436581
-0.008680662
-0.020192256
-0.03016897
-0.044750322
-0.056261915
-0.067006069
-0.076982783
-0.088494377
-0.10077341
-0.113052442
-0.116122201
-0.120726838
-0.119959399
-0.113819882
-0.097703651
-0.08235486
-0.061633992
-0.04705264
-0.042448003
-0.036308487
-0.035541047
-0.040913124
-0.044750322
-0.049354959
-0.058564234
-0.069308388
-0.080052541
-0.090796695
-0.096168772
-0.103843168
-0.106145486
-0.105378047
-0.105378047
-0.103075728
-0.098471091
-0.085424618
-0.076982783
-0.068540948
-0.057796794
-0.054727036
-0.054727036
-0.054727036
-0.058564234
-0.069308388
-0.073913025
-0.077750223
-0.0831223
-0.092331574
-0.093866453
-0.096168772
-0.104610607
-0.106145486
-0.106912926
-0.109982684
-0.101540849
-0.095401333
-0.092331574
-0.090029256
-0.093866453
-0.093099014
-0.095401333
-0.103843168
-0.116122201
-0.129936113
-0.143750025
-0.162936014
-0.172912728
-0.185191761
-0.189796398
-0.192098717
-0.192098717
-0.192098717
-0.185191761
-0.179819684
-0.179052245
-0.168308091
-0.1529593
-0.139912827
-0.130703552
-0.123796596
-0.123029157
-0.122261717
-0.125331475
-0.123796596
-0.129168673
-0.142982585
-0.153726739
-0.167540651
-0.177517365
-0.179819684
-0.184424322
-0.18749408
-0.183656882
-0.179819684
-0.171377849
-0.165238333
-0.162936014
-0.162168574
-0.1529593
-0.147587223
-0.142982585
-0.145284904
-0.153726739
-0.154494179
-0.165238333
-0.167540651
-0.175982486
-0.175982486
-0.179819684
-0.183656882
-0.181354563
-0.175982486
-0.167540651
-0.158331377
-0.153726739
-0.15219186
-0.142982585
-0.144517464
-0.142982585
-0.145284904
-0.156029058
-0.166773212
-0.170610409
-0.179819684
-0.188261519
-0.195935915
-0.212052146
-0.216656783
-0.223563739
-0.228168376
-0.229703256
-0.228935816
-0.22202886
-0.208214948
-0.193633596
-0.177517365
-0.166773212
-0.153726739
-0.145284904
-0.137610508
-0.136075629
-0.142982585
-0.147587223
-0.1529593
-0.162936014
-0.174447607
-0.178284805
-0.179819684
-0.185191761
-0.189796398
-0.18749408
-0.183656882
-0.183656882
-0.179819684
-0.178284805
-0.170610409
-0.166005772
-0.160633695
-0.163703453
-0.166773212
-0.175982486
-0.177517365
-0.18672664
-0.192098717
-0.194401036
-0.196703354
-0.200540552
-0.206680069
-0.208982387
-0.20514519
-0.211284706
-0.212052146
-0.207447508
-0.20514519
-0.198238234
-0.191331278
-0.181354563
-0.170610409
-0.167540651
-0.159866256
-0.162168574
-0.161401135
-0.172912728
-0.179819684
-0.190563838
-0.198238234
-0.206680069
-0.215889343
-0.220493981
-0.228168376
-0.225098618
-0.216656783
-0.205912629
-0.189796398
-0.16907553
-0.156029058
-0.142982585
-0.137610508
-0.132238431
-0.130703552
-0.136075629
-0.139145388
-0.148354662
-0.159866256
-0.174447607
-0.192098717
-0.211284706
-0.22126142
-0.230470695
-0.23967997
-0.236610212
-0.236610212
-0.23967997
-0.233540453
-0.232773014
-0.228935816
-0.225866058
-0.224331179
-0.219726541
-0.220493981
-0.224331179
-0.228935816
-0.236610212
-0.235842772
-0.232773014
-0.229703256
-0.232773014
-0.228935816
-0.228935816
-0.22126142
-0.217424223
-0.213587025
-0.20514519
-0.199005673
-0.192866157
-0.185191761
-0.179819684
-0.175982486
-0.171377849
-0.16907553
-0.174447607
-0.178284805
-0.185191761
-0.197470794
-0.211284706
-0.228168376
-0.23967997
-0.245819486
-0.253493882
-0.255028761
-0.248889245
-0.247354365
-0.245052047
-0.238145091
-0.233540453
-0.22202886
-0.208214948
-0.192098717
-0.182122003
-0.170610409
-0.167540651
-0.175215047
-0.192098717
-0.207447508
-0.228935816
-0.251191563
-0.278819387
-0.290330981
-0.294168179
-0.301842574
-0.298772816
-0.293400739
-0.288796102
-0.278819387
-0.251959003
-0.236610212
-0.224331179
-0.209749827
-0.196703354
-0.192866157
-0.192098717
-0.193633596
-0.202075431
-0.215121904
-0.226633497
-0.241214849
-0.248121805
-0.261168278
-0.278819387
-0.278819387
-0.287261223
-0.290330981
-0.29109842
-0.290330981
-0.285726343
-0.278819387
-0.251191563
-0.237377651
-0.228935816
-0.220493981
-0.213587025
-0.211284706
-0.211284706
-0.212052146
-0.220493981
-0.225866058
-0.235842772
-0.232773014
-0.235842772
-0.240447409
-0.235075332
-0.228935816
-0.225098618
-0.216656783
-0.212819585
-0.201307992
-0.190563838
-0.181354563
-0.178284805
-0.171377849
-0.172912728
-0.178284805
-0.192098717
-0.199005673
-0.215121904
-0.225098618
-0.23891253
-0.251191563
-0.265772915
-0.278819387
-0.278819387
-0.255028761
-0.278819387
-0.264238036
-0.253493882
-0.241214849
-0.232005574
-0.228168376
-0.217424223
-0.213587025
-0.209749827
-0.20437775
-0.201307992
-0.20437775
-0.20514519
-0.209749827
-0.217424223
-0.2227963
-0.228935816
-0.233540453
-0.230470695
-0.225098618
-0.215121904
-0.20437775
-0.191331278
-0.182122003
-0.176749926
-0.172145289
-0.167540651
-0.16984297
-0.176749926
-0.182122003
-0.194401036
-0.208982387
-0.225098618
-0.241214849
-0.245819486
-0.248121805
-0.241214849
-0.23967997
-0.231238135
-0.218191662
-0.20514519
-0.18749408
-0.172145289
-0.159098816
-0.147587223
-0.140680267
-0.130703552
-0.123029157
-0.118424519
-0.119959399
-0.126866355
-0.138377948
-0.1529593
-0.167540651
-0.179819684
-0.190563838
-0.193633596
-0.199005673
-0.201307992
-0.203610311
-0.206680069
-0.202075431
-0.199005673
-0.192098717
-0.18749408
-0.179819684
-0.168308091
-0.158331377
-0.155261618
-0.157563937
-0.162168574
-0.166005772
-0.174447607
-0.190563838
-0.200540552
-0.211284706
-0.217424223
-0.228168376
-0.228935816
-0.228935816
-0.228168376
-0.220493981
-0.212819585
-0.202075431
-0.188261519
-0.176749926
-0.165238333
-0.154494179
-0.149889541
-0.15142442
-0.159866256
-0.167540651
-0.178284805
-0.192098717
-0.202842871
-0.212819585
-0.219726541
-0.216656783
-0.215121904
-0.20437775
-0.20514519
-0.196703354
-0.192866157
-0.18749408
-0.179819684
-0.175215047
-0.167540651
-0.166005772
-0.167540651
-0.162936014
-0.167540651
-0.172145289
-0.179819684
-0.189028959
-0.195168475
-0.209749827
-0.212819585
-0.215121904
-0.212052146
-0.205912629
-0.196703354
-0.189796398
-0.179052245
-0.171377849
-0.167540651
-0.167540651
-0.167540651
-0.167540651
-0.172912728
-0.179819684
-0.18672664
-0.190563838
-0.192098717
-0.192098717
-0.192866157
-0.195168475
-0.199005673
-0.197470794
-0.192098717
-0.189796398
-0.175982486
-0.166773212
-0.149889541
-0.13530819
-0.119959399
-0.105378047
-0.095401333
-0.0831223
-0.073145585
-0.073145585
-0.069308388
-0.062401432
-0.051657278
-0.037075926
-0.010215541
0.018947162
0.046574986
0.085714404
0.129458458
0.175504832
0.227690722
0.286016129
0.347411293
0.4057367
0.45792259
0.507038722
0.556154854
0.589922194
0.611410502
0.625224414
0.629061612
0.616782579
0.599131469
0.585317557
0.558457172
0.525457271
0.485550414
0.445643557
0.399597183
0.355853129
0.309039315
0.2660627
0.218481447
0.172435074
0.130993338
0.089551601
0.055016821
0.020482041
-0.014820179
-0.049354959
-0.08235486
-0.116122201
-0.142982585
-0.166773212
-0.189028959
-0.196703354
-0.206680069
-0.212052146
-0.208214948
-0.20514519
-0.199005673
-0.192866157
-0.179819684
-0.16984297
-0.15142442
-0.137610508
-0.120726838
-0.110750124
-0.106912926
-0.103843168
-0.113052442
-0.116122201
-0.129936113
-0.13530819
-0.144517464
-0.159098816
-0.167540651
-0.16984297
-0.175215047
-0.167540651
-0.157563937
-0.145284904
-0.136075629
-0.129168673
-0.123029157
-0.11688964
-0.110750124
-0.106145486
-0.106912926
-0.108447805
-0.113819882
-0.118424519
-0.118424519
-0.129936113
-0.140680267
-0.148354662
-0.156029058
-0.167540651
-0.16907553
-0.16984297
-0.167540651
-0.156796497
-0.146819783
-0.141447706
-0.133005871
-0.125331475
-0.113819882
-0.10077341
-0.093099014
-0.081587421
-0.083889739
-0.088494377
-0.093866453
-0.108447805
-0.118424519
-0.133005871
-0.142982585
-0.15142442
-0.153726739
-0.154494179
-0.153726739
-0.154494179
-0.146819783
-0.143750025
-0.138377948
-0.129936113
-0.119959399
-0.113052442
-0.105378047
-0.103843168
-0.101540849
-0.104610607
-0.116122201
-0.118424519
-0.123029157
-0.129936113
-0.131470992
-0.130703552
-0.131470992
-0.130703552
-0.129168673
-0.126866355
-0.119959399
-0.109982684
-0.096936212
-0.093099014
-0.08235486
-0.073145585
-0.072378146
-0.081587421
-0.091564135
-0.094633893
-0.103843168
-0.110750124
-0.120726838
-0.125331475
-0.136075629
-0.142215146
-0.145284904
-0.15142442
-0.144517464
-0.141447706
-0.130703552
-0.118424519
-0.109215245
-0.094633893
-0.090029256
-0.079285102
-0.079285102
-0.080052541
-0.086959497
