-0.055760801
-0.115092896
-0.094455645
-0.027384582
-0.04931166
-0.094455645
-0.067369254
-0.006747331
-0.045442176
-0.093165817
-0.062209942
-0.002877847
-0.018355785
-0.077687879
-0.059630285
-0.000298191
-0.018355785
-0.073818395
-0.04931166
0.002281466
-0.013196472
-0.076398051
-0.053181145
0.002281466
-0.026094754
-0.081557364
-0.055760801
-0.010616816
-0.033833723
-0.073818395
-0.045442176
-0.001588019
-0.032543894
-0.090586161
-0.073818395
-0.022225269
-0.053181145
-0.103484442
-0.062209942
-0.009326988
-0.033833723
-0.093165817
-0.072528567
-0.015776128
-0.045442176
-0.090586161
-0.06349977
-0.009326988
-0.027384582
-0.091875989
-0.071238739
-0.001588019
-0.026094754
-0.077687879
-0.04931166
0.008730606
-0.033833723
-0.072528567
-0.04286252
0.004861122
-0.013196472
-0.057050629
-0.02867441
0.025498372
0.015179747
-0.029964238
0.002281466
0.048715279
0.030657685
-0.019645613
0.007440778
0.059033904
0.022918716
-0.044152348
-0.015776128
0.038396654
0.002281466
-0.069948911
-0.064789598
-0.019645613
-0.036413379
-0.078977708
-0.053181145
0.002281466
-0.032543894
-0.067369254
-0.02867441
0.033237341
-0.002877847
-0.053181145
-0.035123551
0.04097631
0.108047373
0.234450531
0.438243378
0.590443099
0.536270317
0.350535064
0.157060843
0.043555966
-0.090586161
-0.177004646
-0.116382724
-0.032543894
-0.046732004
-0.094455645
-0.062209942
-0.02867441
-0.041572691
-0.073818395
-0.044152348
-0.00803716
-0.033833723
-0.089296333
-0.054470973
0.004861122
-0.029964238
-0.073818395
-0.046732004
0.008730606
-0.018355785
-0.06349977
-0.031254066
0.021628888
-0.000298191
-0.04286252
-0.011906644
0.04097631
0.016469575
-0.023515097
0.016469575
0.074511842
0.060323732
0.033237341
0.079671154
0.144162561
0.104177889
0.056454248
0.105467717
0.153191358
0.13126428
0.091279607
0.128684624
0.173828609
0.126104967
0.046135622
0.06161356
0.092569436
0.052584763
-0.002877847
0.017759403
0.050005107
0.002281466
-0.059630285
-0.038993035
0.007440778
-0.04286252
-0.09832513
-0.057050629
0.004861122
-0.033833723
-0.08413702
-0.06349977
-0.023515097
-0.044152348
-0.086716676
-0.046732004
0.007440778
-0.032543894
-0.073818395
-0.04286252
-0.002877847
-0.035123551
-0.076398051
-0.032543894
0.010020434
-0.00803716
-0.036413379
-0.011906644
0.015179747
-0.019645613
-0.04286252
-0.000298191
0.02033906
-0.019645613
-0.066079426
-0.029964238
0.017759403
-0.013196472
-0.059630285
-0.023515097
0.011310263
-0.022225269
-0.054470973
-0.015776128
0.022918716
-0.013196472
-0.060920114
-0.032543894
0.02033906
-0.018355785
-0.072528567
-0.031254066
0.015179747
-0.010616816
-0.066079426
-0.026094754
0.019049231
-0.011906644
-0.053181145
-0.005457503
0.050005107
0.015179747
-0.029964238
0.008730606
0.069352529
0.030657685
-0.038993035
-0.011906644
0.033237341
-0.010616816
-0.071238739
-0.032543894
-0.010616816
-0.060920114
-0.094455645
-0.04286252
0.015179747
-0.036413379
-0.075108223
-0.020935441
0.011310263
-0.04931166
-0.093165817
-0.036413379
0.008730606
-0.023515097
-0.020935441
0.132554108
0.340216439
0.462750113
0.483387363
0.485967019
0.380201111
0.128684624
-0.041572691
-0.080267536
-0.066079426
-0.08413702
-0.108643755
-0.055760801
-0.002877847
-0.038993035
-0.10477427
-0.071238739
-0.011906644
-0.04286252
-0.073818395
-0.032543894
-0.013196472
-0.053181145
-0.088006505
-0.035123551
0.010020434
-0.023515097
-0.08413702
-0.051891317
-0.000298191
-0.026094754
-0.053181145
-0.002877847
0.035816997
0.010020434
-0.029964238
0.039686482
0.079671154
0.029367857
0.007440778
0.074511842
0.11062703
0.071932185
0.038396654
0.100308404
0.157060843
0.101598233
0.059033904
0.101598233
0.141582905
0.102888061
0.051294935
0.087410123
0.108047373
0.04097631
-0.024804925
0.012600091
0.047425451
-0.011906644
-0.066079426
-0.031254066
-0.002877847
-0.04931166
-0.064789598
-0.033833723
-0.024804925
-0.073818395
-0.09832513
-0.04931166
-0.00803716
-0.068659082
-0.108643755
-0.057050629
-0.011906644
-0.053181145
-0.094455645
-0.044152348
-0.002877847
-0.032543894
-0.08413702
-0.029964238
0.00615095
-0.033833723
-0.071238739
-0.035123551
0.003571294
-0.046732004
-0.067369254
-0.011906644
0.02033906
-0.02867441
-0.051891317
-0.011906644
0.019049231
-0.00803716
-0.04931166
-0.002877847
0.034527169
-0.010616816
-0.048021832
-0.000298191
0.0267882
-0.018355785
-0.02867441
0.022918716
0.051294935
0.019049231
-0.006747331
0.053874591
0.079671154
0.033237341
-0.002877847
0.043555966
0.056454248
-0.00803716
-0.059630285
-0.024804925
-0.004167675
-0.033833723
-0.06349977
-0.031254066
-0.011906644
-0.054470973
-0.080267536
-0.040282863
0.00615095
-0.044152348
-0.075108223
-0.031254066
0.004861122
-0.044152348
-0.08413702
0.004861122
0.115786342
0.213813281
0.342796095
0.531111004
0.585283786
0.409867159
0.163509983
0.035816997
-0.032543894
-0.115092896
-0.13959963
-0.068659082
-0.020935441
-0.073818395
-0.099614958
-0.04286252
0.008730606
-0.041572691
-0.093165817
-0.033833723
-0.000298191
-0.041572691
-0.08413702
-0.040282863
0.004861122
-0.038993035
-0.06349977
-0.022225269
0.007440778
-0.031254066
-0.066079426
-0.020935441
0.033237341
-0.011906644
-0.041572691
0.017759403
0.038396654
0.010020434
-0.011906644
0.050005107
0.087410123
0.050005107
0.029367857
0.091279607
0.128684624
0.070642357
0.059033904
0.120945655
0.141582905
0.100308404
0.068062701
0.115786342
0.132554108
0.06161356
0.008730606
0.038396654
0.050005107
-0.020935441
-0.060920114
-0.013196472
-0.004167675
-0.053181145
-0.095745473
-0.051891317
-0.032543894
-0.082847192
-0.090586161
-0.036413379
-0.000298191
-0.071238739
-0.117672552
-0.041572691
-0.005457503
-0.069948911
-0.094455645
-0.032543894
-0.011906644
-0.075108223
-0.106064099
-0.053181145
-0.001588019
-0.051891317
-0.08413702
-0.023515097
0.008730606
-0.040282863
-0.066079426
-0.010616816
0.008730606
-0.029964238
-0.041572691
0.012600091
0.029367857
-0.04286252
-0.073818395
0.008730606
0.04097631
-0.026094754
-0.06349977
-0.0144863
0.010020434
-0.04286252
-0.069948911
-0.015776128
0.008730606
-0.041572691
-0.053181145
-0.009326988
0.011310263
-0.051891317
-0.053181145
0.029367857
0.069352529
0.0267882
0.002281466
0.042266138
0.068062701
0.024208544
0.000991637
0.050005107
0.06161356
-0.001588019
-0.032543894
0.010020434
0.025498372
-0.032543894
-0.073818395
-0.040282863
-0.018355785
-0.053181145
-0.077687879
-0.044152348
-0.023515097
-0.076398051
-0.078977708
-0.031254066
-0.015776128
-0.060920114
-0.080267536
-0.022225269
0.017759403
0.007440778
0.13126428
0.363433346
0.524661863
0.502734785
0.40212819
0.269275891
0.104177889
-0.094455645
-0.161526709
-0.106064099
-0.071238739
-0.099614958
-0.122831864
-0.053181145
-0.020935441
-0.094455645
-0.115092896
-0.046732004
-0.013196472
-0.075108223
-0.086716676
-0.036413379
-0.018355785
-0.073818395
-0.086716676
-0.023515097
0.012600091
-0.044152348
-0.066079426
-0.015776128
0.013889919
-0.033833723
-0.053181145
0.017759403
0.039686482
-0.005457503
-0.009326988
0.046135622
0.059033904
0.004861122
-0.001588019
0.089989779
0.120945655
0.071932185
0.069352529
0.132554108
0.15190153
0.097728748
0.091279607
0.158350671
0.167379468
0.092569436
0.053874591
0.100308404
0.078381326
-0.002877847
-0.02867441
0.012600091
0.0267882
-0.041572691
-0.067369254
-0.024804925
-0.026094754
-0.08413702
-0.094455645
-0.037703207
-0.00803716
-0.04931166
-0.081557364
-0.026094754
-0.022225269
-0.069948911
-0.064789598
-0.002877847
0.008730606
-0.046732004
-0.071238739
-0.011906644
-0.010616816
-0.059630285
-0.059630285
0.003571294
0.015179747
-0.059630285
-0.071238739
0.00615095
0.008730606
-0.051891317
-0.050601488
0.011310263
0.015179747
-0.045442176
-0.04931166
0.008730606
0.017759403
-0.048021832
-0.071238739
-0.013196472
0.004861122
-0.04931166
-0.054470973
0.016469575
0.007440778
-0.060920114
-0.060920114
-0.00803716
0.021628888
-0.037703207
-0.053181145
0.003571294
0.019049231
-0.041572691
-0.053181145
-0.001588019
0.008730606
-0.051891317
-0.058340457
0.008730606
0.000991637
-0.04286252
-0.044152348
0.02033906
0.033237341
-0.023515097
-0.040282863
0.019049231
0.039686482
-0.024804925
-0.027384582
0.031947513
0.051294935
-0.005457503
-0.005457503
0.056454248
0.059033904
0.002281466
0.015179747
0.092569436
0.091279607
0.02033906
-0.009326988
0.046135622
0.048715279
-0.009326988
-0.018355785
0.033237341
0.013889919
-0.032543894
-0.053181145
0.010020434
0.019049231
-0.02867441
-0.040282863
0.008730606
0.038396654
-0.02867441
-0.038993035
0.034527169
0.038396654
-0.0144863
0.000991637
0.137713421
0.318289361
0.435663722
0.542719458
0.600761724
0.464039941
0.162220155
-0.033833723
-0.064789598
-0.059630285
-0.088006505
-0.062209942
0.008730606
0.002281466
-0.051891317
-0.055760801
-0.002877847
0.004861122
-0.058340457
-0.068659082
-0.010616816
-0.00803716
-0.069948911
-0.072528567
0.003571294
-0.001588019
-0.060920114
-0.055760801
0.008730606
0.007440778
-0.058340457
-0.04286252
0.028078028
0.037106825
-0.032543894
-0.02867441
0.038396654
0.051294935
0.02033906
0.0267882
0.097728748
0.108047373
0.053874591
0.070642357
0.136423592
0.150611702
0.091279607
0.089989779
0.153191358
0.144162561
0.097728748
0.091279607
0.132554108
0.128684624
0.042266138
0.013889919
0.053874591
0.035816997
-0.044152348
-0.06349977
-0.005457503
-0.013196472
-0.094455645
-0.103484442
-0.036413379
-0.04286252
-0.094455645
-0.10477427
-0.035123551
-0.035123551
-0.112513239
-0.09832513
-0.032543894
-0.040282863
-0.111223411
-0.109933583
-0.057050629
-0.053181145
-0.10477427
-0.094455645
-0.032543894
-0.032543894
-0.090586161
-0.094455645
-0.032543894
-0.040282863
-0.09832513
-0.085426848
-0.015776128
-0.015776128
-0.073818395
-0.080267536
-0.00803716
-0.011906644
-0.073818395
-0.075108223
-0.0144863
-0.022225269
-0.085426848
-0.088006505
-0.011906644
-0.011906644
-0.075108223
-0.077687879
-0.026094754
-0.024804925
-0.08413702
-0.060920114
0.00615095
-0.002877847
-0.06349977
-0.06349977
0.008730606
0.008730606
-0.046732004
-0.04931166
0.016469575
0.00615095
-0.064789598
-0.055760801
0.012600091
0.012600091
-0.033833723
-0.038993035
0.015179747
0.00615095
-0.051891317
-0.048021832
0.012600091
0.00615095
-0.062209942
-0.04931166
0.0267882
0.017759403
-0.04286252
-0.033833723
0.033237341
0.024208544
-0.045442176
-0.031254066
0.029367857
0.030657685
-0.04286252
-0.031254066
0.025498372
0.019049231
-0.029964238
-0.022225269
0.035816997
0.017759403
-0.032543894
0.002281466
0.060323732
0.051294935
-0.001588019
0.008730606
0.077091498
0.064193216
0.019049231
0.029367857
0.092569436
0.069352529
0.003571294
0.007440778
0.046135622
0.033237341
-0.032543894
-0.029964238
0.033237341
0.012600091
-0.04931166
-0.044152348
0.024208544
0.011310263
-0.059630285
-0.04286252
0.025498372
0.021628888
-0.036413379
-0.015776128
0.100308404
0.203494656
0.314419876
0.480807707
0.611080349
0.516922895
0.260247094
0.062903388
-0.00803716
-0.080267536
-0.135730146
-0.094455645
-0.023515097
-0.045442176
-0.106064099
-0.073818395
-0.011906644
-0.036413379
-0.111223411
-0.089296333
-0.02867441
-0.024804925
-0.073818395
-0.064789598
-0.013196472
-0.027384582
-0.091875989
-0.06349977
-0.002877847
-0.026094754
-0.08413702
-0.072528567
-0.023515097
-0.029964238
-0.073818395
-0.053181145
0.008730606
0.012600091
-0.032543894
-0.023515097
0.047425451
0.050005107
0.004861122
0.038396654
0.105467717
0.091279607
0.037106825
0.064193216
0.136423592
0.113206686
0.064193216
0.092569436
0.139003249
0.100308404
0.007440778
0.012600091
0.064193216
0.013889919
-0.058340457
-0.054470973
-0.020935441
-0.055760801
-0.108643755
-0.094455645
-0.046732004
-0.069948911
-0.121542036
-0.091875989
-0.033833723
-0.06349977
-0.11896238
-0.091875989
-0.053181145
-0.072528567
-0.126701349
-0.09832513
-0.033833723
-0.064789598
-0.115092896
-0.094455645
-0.041572691
-0.059630285
-0.108643755
-0.076398051
-0.018355785
-0.04286252
-0.106064099
-0.068659082
-0.002877847
-0.027384582
-0.073818395
-0.020935441
0.012600091
-0.035123551
-0.080267536
-0.04931166
0.003571294
-0.019645613
-0.077687879
-0.060920114
-0.011906644
-0.032543894
-0.08413702
-0.054470973
0.007440778
-0.031254066
-0.088006505
-0.067369254
-0.00803716
-0.035123551
-0.094455645
-0.069948911
-0.013196472
-0.026094754
-0.080267536
-0.04286252
0.011310263
-0.011906644
-0.069948911
-0.054470973
-0.004167675
-0.031254066
-0.077687879
-0.054470973
0.003571294
-0.013196472
-0.072528567
-0.051891317
0.004861122
-0.031254066
-0.060920114
-0.023515097
0.039686482
0.010020434
-0.026094754
0.003571294
0.069352529
0.016469575
-0.018355785
-0.009326988
0.079671154
0.047425451
-0.015776128
-0.000298191
0.052584763
0.029367857
-0.067369254
-0.04286252
-0.009326988
-0.040282863
-0.073818395
-0.035123551
0.015179747
-0.015776128
-0.097035302
-0.04931166
-0.018355785
-0.009326988
-0.078977708
-0.045442176
0.017759403
0.003571294
-0.0144863
0.148032046
0.380201111
0.479517878
0.469199253
0.466619597
0.359563861
0.102888061
-0.08413702
-0.115092896
-0.072528567
-0.089296333
-0.121542036
-0.088006505
-0.032543894
-0.051891317
-0.094455645
-0.067369254
-0.024804925
-0.04286252
-0.091875989
-0.06349977
-0.010616816
-0.053181145
-0.09832513
-0.041572691
0.007440778
-0.032543894
-0.06349977
-0.046732004
-0.015776128
-0.04286252
-0.069948911
-0.029964238
0.008730606
0.000991637
-0.055760801
-0.029964238
0.030657685
0.004861122
-0.036413379
0.029367857
0.100308404
0.079671154
0.037106825
0.070642357
0.13126428
0.095149092
0.039686482
0.074511842
0.142872733
0.101598233
0.038396654
0.059033904
0.100308404
0.048715279
-0.011906644
0.002281466
0.037106825
0.002281466
-0.066079426
-0.050601488
-0.005457503
-0.038993035
-0.100904786
-0.075108223
-0.031254066
-0.046732004
-0.108643755
-0.077687879
-0.018355785
-0.053181145
-0.106064099
-0.088006505
-0.033833723
-0.055760801
-0.103484442
-0.064789598
-0.018355785
-0.054470973
-0.107353927
-0.068659082
-0.011906644
-0.032543894
-0.075108223
-0.038993035
0.021628888
-0.018355785
-0.080267536
-0.055760801
0.00615095
-0.019645613
-0.067369254
-0.046732004
-0.005457503
-0.032543894
-0.073818395
-0.033833723
0.02033906
-0.002877847
-0.041572691
-0.011906644
0.0267882
0.008730606
-0.041572691
-0.011906644
0.039686482
0.008730606
-0.031254066
0.000991637
0.046135622
0.012600091
-0.0144863
0.022918716
0.06161356
0.038396654
0.016469575
0.039686482
0.109337201
0.077091498
0.025498372
0.066772873
0.100308404
0.035816997
-0.010616816
0.017759403
0.060323732
0.010020434
-0.04286252
-0.011906644
0.022918716
-0.019645613
-0.057050629
-0.023515097
0.029367857
-0.009326988
-0.059630285
-0.029964238
0.021628888
-0.013196472
-0.053181145
-0.002877847
0.060323732
0.091279607
0.194465859
0.384070596
0.56206688
0.553038083
0.409867159
0.255087782
0.105467717
-0.057050629
-0.134440318
-0.094455645
-0.026094754
-0.04931166
-0.076398051
-0.032543894
0.015179747
-0.027384582
-0.077687879
-0.029964238
0.015179747
-0.026094754
-0.082847192
-0.04286252
-0.002877847
-0.036413379
-0.077687879
-0.031254066
0.039686482
-0.002877847
-0.064789598
-0.032543894
0.022918716
-0.001588019
-0.032543894
0.017759403
0.06161356
0.035816997
-0.006747331
0.048715279
0.071932185
0.050005107
0.033237341
0.087410123
0.133843936
0.089989779
0.053874591
0.113206686
0.153191358
0.123525311
0.089989779
0.113206686
0.135133764
0.070642357
0.029367857
0.06161356
0.088699951
0.038396654
-0.032543894
-0.013196472
0.02033906
-0.037703207
-0.076398051
-0.044152348
-0.029964238
-0.06349977
-0.102194614
-0.073818395
-0.036413379
-0.091875989
-0.134440318
-0.057050629
-0.018355785
-0.069948911
-0.11896238
-0.064789598
-0.026094754
-0.073818395
-0.115092896
-0.055760801
-0.019645613
-0.076398051
-0.108643755
-0.037703207
-0.004167675
-0.073818395
-0.107353927
-0.051891317
0.002281466
-0.046732004
-0.08413702
-0.033833723
0.002281466
-0.053181145
-0.081557364
-0.004167675
0.028078028
-0.032543894
-0.093165817
-0.044152348
0.008730606
-0.032543894
-0.085426848
-0.027384582
0.016469575
-0.032543894
-0.073818395
-0.023515097
0.007440778
-0.050601488
-0.071238739
-0.013196472
0.029367857
0.000991637
-0.035123551
0.015179747
0.060323732
0.008730606
-0.026094754
0.019049231
0.069352529
0.025498372
-0.032543894
0.02033906
0.053874591
-0.015776128
-0.072528567
-0.032543894
-0.004167675
-0.050601488
-0.073818395
-0.022225269
-0.002877847
-0.059630285
-0.078977708
-0.023515097
0.017759403
-0.019645613
-0.064789598
-0.029964238
0.007440778
-0.015776128
0.021628888
0.197045515
0.380201111
0.479517878
0.489836504
0.47822805
0.314419876
0.039686482
-0.115092896
-0.116382724
-0.073818395
-0.109933583
-0.135730146
-0.075108223
-0.032543894
-0.090586161
-0.117672552
-0.051891317
-0.020935441
-0.075108223
-0.111223411
-0.055760801
-0.011906644
-0.069948911
-0.106064099
-0.053181145
-0.015776128
-0.064789598
-0.103484442
-0.044152348
0.002281466
-0.038993035
-0.068659082
-0.018355785
0.022918716
-0.023515097
-0.04931166
0.004861122
0.044845794
0.00615095
0.003571294
0.052584763
0.100308404
0.042266138
0.012600091
0.091279607
0.132554108
0.06161356
0.017759403
0.07580167
0.132554108
0.079671154
0.028078028
0.053874591
0.074511842
-0.002877847
-0.04286252
-0.010616816
-0.001588019
-0.053181145
-0.090586161
-0.04931166
-0.015776128
-0.073818395
-0.111223411
-0.072528567
-0.020935441
-0.059630285
-0.089296333
-0.035123551
-0.006747331
-0.06349977
-0.094455645
-0.04286252
-0.004167675
-0.04931166
-0.093165817
-0.040282863
-0.011906644
-0.057050629
-0.080267536
-0.032543894
0.007440778
-0.035123551
-0.062209942
-0.010616816
0.02033906
-0.051891317
-0.082847192
-0.020935441
0.011310263
-0.040282863
-0.073818395
-0.032543894
0.017759403
-0.032543894
-0.064789598
-0.011906644
-0.005457503
-0.044152348
-0.045442176
-0.002877847
0.008730606
-0.036413379
-0.055760801
-0.011906644
-0.000298191
-0.045442176
-0.073818395
-0.002877847
0.013889919
-0.051891317
-0.064789598
-0.000298191
0.030657685
-0.010616816
-0.026094754
0.034527169
0.06161356
0.008730606
-0.026094754
0.030657685
0.065483045
0.031947513
-0.02867441
0.02033906
0.024208544
-0.032543894
-0.060920114
-0.020935441
0.000991637
-0.060920114
-0.080267536
-0.024804925
-0.018355785
-0.080267536
-0.090586161
-0.033833723
-0.00803716
-0.062209942
-0.085426848
-0.032543894
-0.004167675
-0.032543894
0.033237341
0.249928469
0.425345096
0.484677191
0.493705988
0.442112862
0.228001391
-0.010616816
-0.135730146
-0.116382724
-0.08413702
-0.115092896
-0.125411521
-0.073818395
-0.04931166
-0.103484442
-0.121542036
-0.053181145
-0.031254066
-0.085426848
-0.115092896
-0.045442176
-0.018355785
-0.073818395
-0.094455645
-0.038993035
-0.011906644
-0.062209942
-0.09832513
-0.032543894
0.002281466
-0.050601488
-0.067369254
-0.009326988
0.004861122
-0.041572691
-0.044152348
0.021628888
0.060323732
-0.001588019
-0.004167675
0.06161356
0.084830467
0.043555966
0.051294935
0.115786342
0.136423592
0.100308404
0.079671154
0.146742218
0.160930327
0.095149092
0.056454248
0.109337201
0.120945655
0.035816997
-0.002877847
0.033237341
0.038396654
-0.029964238
-0.060920114
-0.010616816
0.004861122
-0.050601488
-0.075108223
-0.02867441
-0.00803716
-0.064789598
-0.093165817
-0.031254066
-0.011906644
-0.071238739
-0.088006505
-0.00803716
0.004861122
-0.060920114
-0.080267536
-0.023515097
-0.015776128
-0.073818395
-0.097035302
-0.035123551
0.000991637
-0.050601488
-0.078977708
-0.020935441
-0.002877847
-0.064789598
-0.080267536
-0.011906644
0.004861122
-0.053181145
-0.064789598
0.002281466
0.022918716
-0.041572691
-0.067369254
-0.002877847
0.028078028
-0.023515097
-0.032543894
0.011310263
0.017759403
-0.032543894
-0.044152348
0.02033906
0.031947513
-0.041572691
-0.046732004
0.021628888
0.031947513
-0.031254066
-0.057050629
0.015179747
0.017759403
-0.048021832
-0.059630285
0.002281466
0.017759403
-0.032543894
-0.051891317
-0.009326988
-0.000298191
-0.051891317
-0.051891317
0.016469575
0.02033906
-0.033833723
-0.053181145
0.017759403
0.0267882
-0.050601488
-0.055760801
0.015179747
0.028078028
-0.029964238
-0.032543894
0.046135622
0.069352529
-0.010616816
-0.010616816
0.064193216
0.079671154
0.011310263
-0.00803716
0.051294935
0.057744076
-0.024804925
-0.035123551
0.015179747
0.010020434
-0.040282863
-0.058340457
-0.000298191
0.008730606
-0.04286252
-0.044152348
0.02033906
0.022918716
-0.051891317
-0.080267536
0.012600091
-0.00803716
-0.060920114
-0.051891317
0.111916858
0.304101251
0.40212819
0.564646536
0.604631208
0.47177891
0.167379468
-0.001588019
-0.041572691
-0.058340457
-0.091875989
-0.077687879
-0.010616816
-0.009326988
-0.077687879
-0.086716676
-0.018355785
-0.002877847
-0.080267536
-0.112513239
-0.04286252
-0.02867441
-0.106064099
-0.09832513
-0.011906644
-0.019645613
-0.073818395
-0.075108223
0.048715279
0.000991637
-0.054470973
-0.051891317
-0.004167675
0.071932185
-0.009326988
-0.075108223
0.028078028
0.035816997
-0.046732004
-0.011906644
0.066772873
0.092569436
0.034527169
0.04097631
0.108047373
0.111916858
0.050005107
0.073222013
0.132554108
0.126104967
0.065483045
0.053874591
0.105467717
0.099018576
0.028078028
-0.002877847
0.050005107
0.038396654
-0.053181145
-0.080267536
-0.036413379
-0.037703207
-0.100904786
-0.103484442
-0.04931166
-0.053181145
-0.121542036
-0.122831864
-0.066079426
-0.062209942
-0.109933583
-0.111223411
-0.053181145
-0.050601488
-0.109933583
-0.107353927
-0.054470973
-0.053181145
-0.107353927
-0.117672552
-0.046732004
-0.031254066
-0.077687879
-0.076398051
-0.011906644
-0.0144863
-0.106064099
-0.091875989
-0.018355785
-0.004167675
-0.086716676
-0.076398051
-0.009326988
0.004861122
-0.062209942
-0.073818395
-0.010616816
0.00615095
-0.053181145
-0.044152348
0.016469575
0.004861122
-0.04931166
-0.046732004
0.021628888
0.022918716
-0.041572691
-0.055760801
0.012600091
0.016469575
-0.033833723
-0.033833723
0.016469575
0.004861122
-0.06349977
-0.059630285
0.015179747
0.019049231
-0.041572691
-0.032543894
0.025498372
0.02033906
-0.035123551
-0.055760801
0.010020434
0.022918716
-0.032543894
-0.037703207
0.017759403
0.007440778
-0.064789598
-0.054470973
0.022918716
0.029367857
-0.044152348
-0.026094754
0.037106825
0.022918716
-0.041572691
-0.04286252
0.016469575
0.02033906
-0.036413379
-0.031254066
0.029367857
0.031947513
-0.033833723
-0.026094754
0.046135622
0.060323732
0.007440778
-0.002877847
0.056454248
0.044845794
-0.022225269
-0.02867441
0.029367857
0.002281466
-0.06349977
-0.054470973
0.000991637
-0.00803716
-0.06349977
-0.053181145
0.00615095
-0.000298191
-0.072528567
-0.066079426
-0.00803716
-0.002877847
-0.066079426
-0.06349977
0.017759403
0.066772873
0.159640499
0.347955408
0.569805849
0.594312583
0.444692519
0.244769156
0.102888061
-0.036413379
-0.143469115
-0.117672552
-0.035123551
-0.026094754
-0.086716676
-0.085426848
-0.020935441
-0.02867441
-0.073818395
-0.06349977
-0.00803716
-0.024804925
-0.077687879
-0.066079426
-0.001588019
-0.002877847
-0.073818395
-0.06349977
-0.00803716
-0.010616816
-0.059630285
-0.04286252
0.003571294
-0.001588019
-0.057050629
-0.032543894
0.04097631
0.025498372
-0.036413379
-0.011906644
0.062903388
0.060323732
0.002281466
0.034527169
0.113206686
0.11062703
0.050005107
0.074511842
0.145452389
0.132554108
0.068062701
0.087410123
0.132554108
0.129974452
0.057744076
0.044845794
0.087410123
0.047425451
-0.033833723
-0.044152348
-0.002877847
-0.015776128
-0.082847192
-0.076398051
-0.032543894
-0.054470973
-0.115092896
-0.122831864
-0.064789598
-0.082847192
-0.144758943
-0.127991177
-0.073818395
-0.075108223
-0.129281005
-0.134440318
-0.064789598
-0.062209942
-0.13315049
-0.116382724
-0.066079426
-0.082847192
-0.13315049
-0.108643755
-0.04286252
-0.04286252
-0.108643755
-0.093165817
-0.036413379
-0.038993035
-0.088006505
-0.088006505
-0.027384582
-0.032543894
-0.088006505
-0.075108223
-0.019645613
-0.011906644
-0.066079426
-0.062209942
-0.002877847
-0.011906644
-0.075108223
-0.067369254
-0.013196472
-0.015776128
-0.073818395
-0.069948911
-0.010616816
-0.018355785
-0.073818395
-0.057050629
-0.000298191
-0.011906644
-0.06349977
-0.041572691
0.022918716
-0.000298191
-0.066079426
-0.050601488
0.012600091
-0.000298191
-0.053181145
-0.024804925
0.022918716
0.008730606
-0.048021832
-0.024804925
0.022918716
0.008730606
-0.044152348
-0.026094754
0.039686482
0.030657685
-0.032543894
-0.013196472
0.033237341
0.016469575
-0.023515097
-0.005457503
0.056454248
0.022918716
-0.04286252
-0.015776128
0.051294935
0.033237341
-0.022225269
-0.010616816
0.050005107
0.039686482
-0.005457503
0.010020434
0.06161356
0.053874591
0.007440778
0.033237341
0.09643892
0.070642357
0.004861122
0.028078028
0.068062701
0.033237341
-0.02867441
-0.002877847
0.050005107
0.022918716
-0.035123551
-0.020935441
0.035816997
0.017759403
-0.038993035
-0.019645613
0.034527169
0.013889919
-0.041572691
-0.0144863
0.038396654
0.038396654
0.073222013
0.265406407
0.51305341
0.598182068
0.500155129
0.368592658
0.198335343
-0.005457503
-0.135730146
-0.121542036
-0.033833723
-0.036413379
-0.080267536
-0.057050629
-0.013196472
-0.020935441
-0.080267536
-0.057050629
-0.00803716
-0.023515097
-0.073818395
-0.040282863
0.02033906
-0.015776128
-0.066079426
-0.032543894
0.0267882
0.000991637
-0.060920114
-0.041572691
0.016469575
0.02033906
-0.036413379
-0.004167675
0.059033904
0.039686482
-0.023515097
0.007440778
0.070642357
0.064193216
0.004861122
0.050005107
0.129974452
0.111916858
0.057744076
0.097728748
0.157060843
0.141582905
0.088699951
0.108047373
0.155771015
0.139003249
0.070642357
0.087410123
0.118365998
0.066772873
-0.010616816
-0.005457503
0.0267882
-0.013196472
-0.100904786
-0.075108223
-0.017065957
-0.04931166
-0.106064099
-0.071238739
-0.013196472
-0.059630285
-0.108643755
-0.075108223
-0.020935441
-0.050601488
-0.115092896
-0.081557364
-0.041572691
-0.053181145
-0.09832513
-0.062209942
-0.026094754
-0.051891317
-0.094455645
-0.044152348
-0.005457503
-0.04931166
-0.107353927
-0.064789598
-0.0144863
-0.045442176
-0.094455645
-0.060920114
-0.002877847
-0.02867441
-0.09832513
-0.073818395
-0.02867441
-0.032543894
-0.073818395
-0.058340457
-0.0144863
-0.045442176
-0.100904786
-0.069948911
-0.009326988
-0.036413379
-0.103484442
-0.060920114
0.002281466
-0.040282863
-0.095745473
-0.059630285
-0.000298191
-0.018355785
-0.071238739
-0.032543894
0.02033906
-0.009326988
-0.059630285
-0.032543894
0.022918716
-0.001588019
-0.051891317
-0.032543894
0.037106825
0.017759403
-0.035123551
-0.015776128
0.022918716
0.008730606
-0.040282863
-0.011906644
0.042266138
0.008730606
-0.038993035
-0.010616816
0.029367857
0.008730606
-0.029964238
0.007440778
0.051294935
0.028078028
-0.0144863
0.017759403
0.070642357
0.053874591
0.004861122
0.046135622
0.111916858
0.079671154
0.008730606
0.02033906
0.050005107
-0.000298191
-0.033833723
-0.009326988
0.0267882
-0.018355785
-0.060920114
-0.033833723
0.008730606
-0.013196472
-0.050601488
-0.011906644
0.038396654
-0.011906644
-0.059630285
-0.013196472
0.035816997
0.013889919
0.029367857
0.222842078
0.440823034
0.536270317
0.497575472
0.427924753
0.27701486
0.050005107
-0.099614958
-0.094455645
-0.033833723
-0.053181145
-0.111223411
-0.073818395
0.000991637
-0.015776128
-0.064789598
-0.029964238
0.021628888
-0.032543894
-0.091875989
-0.058340457
0.008730606
-0.011906644
-0.059630285
-0.022225269
0.017759403
-0.006747331
-0.044152348
-0.015776128
0.003571294
-0.018355785
-0.033833723
-0.002877847
0.04097631
-0.000298191
-0.040282863
0.00615095
0.064193216
0.038396654
0.007440778
0.04097631
0.093859264
0.060323732
0.029367857
0.079671154
0.128684624
0.092569436
0.043555966
0.088699951
0.124815139
0.091279607
0.04097631
0.068062701
0.099018576
0.048715279
-0.010616816
0.004861122
0.033237341
-0.023515097
-0.073818395
-0.045442176
-0.010616816
-0.046732004
-0.091875989
-0.04931166
-0.013196472
-0.058340457
-0.094455645
-0.06349977
-0.018355785
-0.054470973
-0.102194614
-0.06349977
-0.015776128
-0.055760801
-0.093165817
-0.038993035
0.013889919
-0.032543894
-0.077687879
-0.032543894
0.002281466
-0.02867441
-0.069948911
-0.033833723
0.016469575
-0.026094754
-0.080267536
-0.035123551
0.0267882
-0.011906644
-0.06349977
-0.036413379
0.019049231
-0.023515097
-0.069948911
-0.011906644
0.022918716
0.008730606
-0.054470973
-0.026094754
0.010020434
-0.004167675
-0.067369254
-0.024804925
0.019049231
-0.005457503
-0.038993035
0.002281466
0.048715279
-0.001588019
-0.044152348
-0.005457503
0.051294935
0.0267882
-0.018355785
0.030657685
0.11062703
0.048715279
0.008730606
0.043555966
0.051294935
0.042266138
-0.02867441
0.007440778
0.043555966
-0.002877847
-0.032543894
-0.031254066
0.064193216
-0.031254066
-0.073818395
-0.017065957
-0.010616816
-0.011906644
-0.062209942
-0.017065957
0.019049231
-0.033833723
-0.082847192
-0.013196472
0.122235483
0.249928469
0.371172314
0.524661863
0.573675333
0.394389221
0.139003249
0.038396654
-0.017065957
-0.107353927
-0.13315049
-0.064789598
-0.010616816
-0.053181145
-0.088006505
-0.045442176
-0.019645613
-0.051891317
-0.081557364
-0.046732004
-0.015776128
-0.059630285
-0.095745473
-0.046732004
0.000991637
-0.032543894
-0.075108223
-0.032543894
0.015179747
-0.031254066
-0.067369254
-0.018355785
0.019049231
-0.02867441
-0.069948911
-0.010616816
0.035816997
0.017759403
-0.011906644
0.022918716
0.073222013
0.053874591
0.029367857
0.065483045
0.120945655
0.093859264
0.051294935
0.108047373
0.154481186
0.113206686
0.059033904
0.093859264
0.136423592
0.089989779
0.017759403
0.025498372
0.051294935
0.007440778
-0.040282863
-0.005457503
0.021628888
-0.044152348
-0.09832513
-0.06349977
-0.010616816
-0.053181145
-0.107353927
-0.058340457
-0.011906644
-0.04931166
-0.068659082
-0.024804925
-0.002877847
-0.044152348
-0.076398051
-0.031254066
0.000991637
-0.062209942
-0.09832513
-0.038993035
-0.001588019
-0.051891317
-0.090586161
-0.04286252
-0.001588019
-0.041572691
-0.073818395
-0.031254066
-0.011906644
-0.053181145
-0.077687879
-0.011906644
0.030657685
-0.004167675
-0.053181145
-0.009326988
0.019049231
-0.029964238
-0.067369254
0.008730606
0.022918716
-0.031254066
-0.051891317
0.039686482
0.035816997
0.004861122
-0.013196472
0.031947513
0.070642357
0.008730606
-0.044152348
-0.011906644
0.002281466
-0.072528567
-0.106064099
-0.046732004
-0.018355785
-0.08413702
-0.125411521
-0.072528567
-0.04286252
-0.09832513
-0.135730146
-0.082847192
-0.041572691
-0.067369254
-0.103484442
-0.06349977
-0.035123551
-0.077687879
-0.054470973
0.120945655
0.329897814
0.427924753
0.461460284
0.469199253
0.329897814
0.069352529
-0.115092896
-0.148628427
-0.115092896
-0.155077568
-0.162816537
-0.090586161
-0.051891317
-0.10477427
-0.146048771
-0.08413702
-0.04286252
-0.107353927
-0.146048771
-0.085426848
-0.053181145
-0.08413702
-0.115092896
-0.080267536
-0.04286252
-0.08413702
-0.11896238
-0.073818395
-0.019645613
-0.067369254
-0.100904786
-0.04286252
0.00615095
-0.044152348
-0.064789598
-0.000298191
0.04097631
-0.005457503
-0.023515097
0.034527169
0.073222013
0.037106825
0.015179747
0.071932185
0.118365998
0.038396654
0.030657685
0.104177889
0.13126428
0.064193216
0.021628888
0.089989779
0.100308404
0.029367857
-0.026094754
0.007440778
0.016469575
-0.044152348
-0.086716676
-0.054470973
-0.031254066
-0.085426848
-0.115092896
-0.072528567
-0.045442176
-0.100904786
-0.137019974
-0.088006505
-0.046732004
-0.09832513
-0.120252208
-0.062209942
-0.045442176
-0.085426848
-0.100904786
-0.054470973
-0.035123551
-0.08413702
-0.103484442
-0.041572691
-0.024804925
-0.080267536
-0.095745473
-0.04286252
-0.006747331
-0.06349977
-0.102194614
-0.036413379
0.0267882
-0.027384582
-0.064789598
-0.013196472
0.028078028
-0.044152348
-0.080267536
-0.0144863
0.008730606
-0.036413379
-0.059630285
-0.011906644
0.029367857
-0.02867441
-0.04286252
0.017759403
0.039686482
-0.001588019
-0.02867441
0.039686482
0.092569436
0.016469575
-0.009326988
0.039686482
0.052584763
-0.001588019
-0.02867441
0.008730606
0.012600091
-0.055760801
-0.088006505
-0.023515097
0.000991637
-0.060920114
-0.077687879
-0.041572691
-0.010616816
-0.059630285
-0.081557364
-0.018355785
-0.000298191
-0.046732004
-0.080267536
-0.022225269
0.0267882
0.052584763
0.188016718
0.409867159
0.564646536
0.536270317
0.390519737
0.215103109
0.050005107
-0.103484442
-0.162816537
-0.093165817
-0.041572691
-0.082847192
-0.106064099
-0.04286252
-0.020935441
-0.08413702
-0.108643755
-0.048021832
-0.00803716
-0.062209942
-0.086716676
-0.019645613
0.000991637
-0.069948911
-0.089296333
-0.02867441
-0.010616816
-0.067369254
-0.078977708
-0.018355785
0.017759403
-0.020935441
-0.048021832
0.016469575
0.035816997
-0.023515097
-0.02867441
0.050005107
0.078381326
0.0267882
0.016469575
0.074511842
0.111916858
0.070642357
0.069352529
0.13126428
0.154481186
0.105467717
0.07580167
0.115786342
0.123525311
0.068062701
0.035816997
0.079671154
0.092569436
0.008730606
-0.036413379
-0.002877847
0.007440778
-0.050601488
-0.088006505
-0.04286252
-0.015776128
-0.076398051
-0.094455645
-0.036413379
-0.006747331
-0.075108223
-0.100904786
-0.040282863
-0.011906644
-0.062209942
-0.08413702
-0.004167675
0.007440778
-0.051891317
-0.072528567
-0.015776128
0.011310263
-0.023515097
-0.062209942
-0.002877847
0.0267882
-0.032543894
-0.050601488
0.02033906
0.035816997
0.002281466
-0.019645613
0.035816997
0.064193216
-0.000298191
-0.033833723
0.012600091
0.029367857
-0.018355785
-0.020935441
0.031947513
0.039686482
-0.019645613
-0.044152348
0.016469575
0.048715279
-0.020935441
-0.044152348
0.025498372
0.038396654
-0.026094754
-0.04931166
0.017759403
0.043555966
-0.011906644
-0.024804925
0.015179747
0.033237341
-0.0144863
-0.031254066
0.028078028
0.053874591
-0.011906644
-0.024804925
0.046135622
0.073222013
0.021628888
0.010020434
0.079671154
0.099018576
0.060323732
0.053874591
0.11062703
0.106757545
0.04097631
0.015179747
0.052584763
0.066772873
-0.002877847
-0.02867441
0.022918716
0.051294935
-0.006747331
-0.026094754
0.022918716
0.029367857
-0.035123551
-0.044152348
0.02033906
0.042266138
-0.018355785
-0.033833723
0.017759403
0.033237341
-0.002877847
0.078381326
0.29765211
0.474358566
0.533690661
0.531111004
0.466619597
0.252508125
0.004861122
-0.108643755
-0.073818395
-0.044152348
-0.078977708
-0.067369254
-0.013196472
-0.011906644
-0.062209942
-0.064789598
-0.005457503
0.004861122
-0.057050629
-0.073818395
-0.010616816
0.012600091
-0.053181145
-0.071238739
0.010020434
0.025498372
-0.032543894
-0.053181145
0.008730606
0.025498372
-0.02867441
-0.033833723
0.028078028
0.047425451
-0.018355785
-0.041572691
0.022918716
0.043555966
-0.001588019
0.008730606
0.079671154
0.120945655
0.065483045
0.052584763
0.126104967
0.142872733
0.100308404
0.092569436
0.145452389
0.157060843
0.089989779
0.062903388
0.109337201
0.111916858
0.042266138
0.008730606
0.034527169
0.033237341
-0.031254066
-0.059630285
-0.0144863
-0.011906644
-0.076398051
-0.073818395
-0.013196472
-0.010616816
-0.078977708
-0.089296333
-0.018355785
-0.002877847
-0.073818395
-0.090586161
-0.022225269
0.011310263
-0.048021832
-0.069948911
-0.002877847
0.007440778
-0.066079426
-0.075108223
-0.002877847
0.008730606
-0.046732004
-0.046732004
0.007440778
-0.000298191
-0.060920114
-0.06349977
0.011310263
0.022918716
-0.046732004
-0.055760801
-0.004167675
-0.022225269
-0.06349977
-0.06349977
0.008730606
-0.000298191
-0.069948911
-0.057050629
0.004861122
-0.004167675
-0.069948911
-0.062209942
0.008730606
0.008730606
-0.04931166
-0.062209942
-0.013196472
-0.011906644
-0.050601488
-0.064789598
-0.011906644
-0.002877847
-0.080267536
-0.085426848
-0.0144863
-0.011906644
-0.062209942
-0.073818395
-0.011906644
-0.001588019
-0.059630285
-0.080267536
-0.023515097
-0.005457503
-0.053181145
-0.062209942
0.002281466
0.012600091
-0.053181145
-0.057050629
-0.013196472
-0.011906644
-0.059630285
-0.054470973
-0.000298191
0.002281466
-0.067369254
-0.06349977
-0.004167675
-0.005457503
-0.06349977
-0.072528567
-0.00803716
-0.002877847
-0.055760801
-0.054470973
0.004861122
0.028078028
-0.027384582
-0.050601488
0.02033906
0.050005107
-0.002877847
-0.001588019
0.04097631
0.029367857
-0.046732004
-0.048021832
-0.020935441
-0.048021832
-0.06349977
-0.085426848
-0.032543894
-0.033833723
-0.073818395
-0.095745473
-0.0144863
-0.024804925
-0.08413702
-0.080267536
-0.013196472
-0.038993035
-0.082847192
-0.067369254
0.008730606
0.051294935
0.118365998
0.362143517
0.525951692
0.574965161
0.44340269
0.247348813
0.132554108
-0.001588019
-0.178294475
-0.130570833
-0.046732004
-0.027384582
-0.073818395
-0.085426848
-0.023515097
-0.011906644
-0.082847192
-0.075108223
-0.011906644
-0.013196472
-0.059630285
-0.060920114
-0.010616816
-0.015776128
-0.069948911
-0.04931166
0.00615095
0.000991637
-0.053181145
-0.051891317
0.015179747
0.008730606
-0.045442176
-0.038993035
0.025498372
0.037106825
-0.018355785
0.003571294
0.073222013
0.074511842
0.031947513
0.060323732
0.132554108
0.137713421
0.084830467
0.102888061
0.169959124
0.163509983
0.105467717
0.109337201
0.173828609
0.167379468
0.091279607
0.083540639
0.115786342
0.091279607
0.02033906
0.004861122
0.046135622
0.02033906
-0.046732004
-0.053181145
-0.019645613
-0.013196472
-0.064789598
-0.076398051
-0.020935441
-0.023515097
-0.075108223
-0.062209942
-0.020935441
-0.019645613
-0.073818395
-0.073818395
-0.019645613
-0.022225269
-0.075108223
-0.073818395
-0.0144863
-0.018355785
-0.075108223
-0.054470973
-0.005457503
-0.009326988
