-0.04136154154647528
-0.0794548569958747
-0.04517087309141522
-0.004538003278722496
-0.043901095909768574
-0.09977129190222107
-0.07310597108764147
-0.015965997913542324
-0.04771042745470852
-0.09723173753892778
-0.04771042745470852
0.0030806598111573894
-0.029933546911655447
-0.09596196035728112
-0.07310597108764147
-0.017235775095188973
-0.03628243281988869
-0.0794548569958747
-0.03247310127494875
0.022127317535857102
-0.027393992548362153
-0.060408199271174995
-0.012156666368602381
0.031015757807383637
-0.004538003278722496
-0.04771042745470852
0.004350436992804037
0.057681078621963235
0.014508654445977218
-0.03755221000153534
-0.00834733482366244
0.022127317535857102
-0.017235775095188973
-0.059138422089528346
-0.042631318728121925
-0.009617112005309087
-0.04644065027306187
-0.10865973217374761
-0.06929663954270153
-0.02485443818506886
-0.05278953618129511
-0.09977129190222107
-0.06929663954270153
-0.027393992548362153
-0.060408199271174995
-0.10104106908386773
-0.060408199271174995
-0.01850555227683562
-0.04771042745470852
-0.07437574826928811
0.009429545719390628
0.20751478605626766
0.35734849349057207
0.4525817821140707
0.5211497499229897
0.5109915324698164
0.2760827538651866
0.001810882629510742
-0.08072463417752135
-0.0794548569958747
-0.10358062344716101
-0.15056237916808698
-0.10104106908386773
-0.0286637697300088
-0.06548730799776158
-0.11881794962692079
-0.07564552545093477
-0.026124215366715504
-0.06929663954270153
-0.12516683553515404
-0.08834329726740124
-0.03755221000153534
-0.06548730799776158
-0.11246906371868755
-0.081994411359168
-0.009617112005309087
-0.027393992548362153
-0.08961307444904788
-0.0553290905445884
-0.007077557642015792
-0.03628243281988869
-0.06294775363446829
-0.0286637697300088
0.020857540354210457
-0.021045106640128916
-0.060408199271174995
-0.012156666368602381
0.04244375244220347
0.013238877264330571
-0.017235775095188973
0.028476203444090343
0.08180684507324953
0.06149041016690318
0.020857540354210457
0.072918404801723
0.1262490464308822
0.09958372561630262
0.06149041016690318
0.1046628343428892
0.15418414442710848
0.10720238870618248
0.052601969895376646
0.09323483970806938
0.1287886007941755
0.07037885043842972
0.009429545719390628
0.0246668718991504
0.04371352962385011
-0.0007286717337825536
-0.06548730799776158
-0.03628243281988869
0.037364643715616874
-0.04898020463635516
-0.09723173753892778
-0.0794548569958747
-0.03628243281988869
-0.07564552545093477
-0.12008772680856744
-0.08834329726740124
-0.03501265563824204
-0.05024998181800181
-0.05278953618129511
-0.06167797645282164
-0.02485443818506886
-0.059138422089528346
-0.10485040062880767
-0.06802686236105487
0.008159768537743979
-0.08072463417752135
-0.10231084626551437
-0.04136154154647528
-0.022314883821775565
-0.04771042745470852
-0.09215262881234118
-0.05405931336294176
0.0030806598111573894
-0.03247310127494875
-0.08834329726740124
-0.03755221000153534
-0.014696220731895677
-0.0286637697300088
-0.07564552545093477
-0.06802686236105487
-0.00834733482366244
-0.04898020463635516
-0.04898020463635516
-0.04517087309141522
0.01831798599091716
-0.001998448915429201
-0.09088285163069454
-0.015965997913542324
0.009429545719390628
-0.04136154154647528
-0.07691530263258141
-0.014696220731895677
0.033555312170676935
-0.01342644355024903
-0.06802686236105487
-0.0286637697300088
0.011969100082683924
-0.038821987183181986
-0.0794548569958747
-0.014696220731895677
0.036094866533970225
-0.004538003278722496
-0.05278953618129511
-0.03628243281988869
0.011969100082683924
-0.01850555227683562
-0.0578686449078817
-0.010886889186955734
0.032285534989030286
-0.00834733482366244
-0.05405931336294176
-0.00834733482366244
0.02974598062573699
-0.00834733482366244
-0.05405931336294176
-0.015965997913542324
0.036094866533970225
0.004350436992804037
-0.04898020463635516
-0.00834733482366244
0.03863442089726352
0.008159768537743979
-0.027393992548362153
0.022127317535857102
0.09577439407136268
0.053871747077023295
0.006889991356097332
0.04879263835043671
0.09577439407136268
0.04879263835043671
0.001810882629510742
0.04117397526055682
0.06910907325678306
0.010699322901037277
-0.022314883821775565
0.019587763172563808
0.04244375244220347
-0.017235775095188973
-0.06294775363446829
-0.01850555227683562
0.020857540354210457
-0.012156666368602381
-0.060408199271174995
-0.01977532945848227
0.022127317535857102
-0.007077557642015792
-0.059138422089528346
-0.017235775095188973
0.013238877264330571
-0.027393992548362153
-0.04517087309141522
0.10339305716124254
0.31671562367787937
0.4462328962058374
0.5198799727413429
0.5592430653723891
0.46781910829383044
0.18338901960498136
-0.05278953618129511
-0.10992950935539425
-0.07310597108764147
-0.08961307444904788
-0.11246906371868755
-0.06167797645282164
-0.0286637697300088
-0.06294775363446829
-0.10104106908386773
-0.06675708517940823
-0.022314883821775565
-0.05659886772623505
-0.09596196035728112
-0.04517087309141522
-0.001998448915429201
-0.040091764364828635
-0.08326418854081465
-0.03501265563824204
0.008159768537743979
-0.029933546911655447
-0.07056641672434817
-0.004538003278722496
0.02974598062573699
-0.038821987183181986
-0.06294775363446829
-0.004538003278722496
0.02339709471750375
-0.021045106640128916
-0.05151975899964846
0.008159768537743979
0.052601969895376646
0.019587763172563808
-0.00834733482366244
0.04879263835043671
0.1021232799795959
0.06783929607513642
0.04371352962385011
0.10974194306947578
0.163072584698635
0.11482105179606238
0.07037885043842972
0.12243971488594226
0.17069124778851488
0.11355127461441572
0.06910907325678306
0.11609082897770902
0.1338677095207621
0.053871747077023295
0.001810882629510742
0.032285534989030286
0.033555312170676935
-0.0337428784565954
-0.0794548569958747
-0.0553290905445884
-0.022314883821775565
-0.0578686449078817
-0.08961307444904788
-0.06675708517940823
-0.043901095909768574
-0.08707352008575459
-0.10992950935539425
-0.07691530263258141
-0.03247310127494875
-0.07564552545093477
-0.12008772680856744
-0.07818507981422806
-0.0312033240933021
-0.081994411359168
-0.11627839526362749
-0.07564552545093477
-0.0286637697300088
-0.07437574826928811
-0.11627839526362749
-0.06929663954270153
-0.03247310127494875
-0.059138422089528346
-0.08961307444904788
-0.040091764364828635
-0.001998448915429201
-0.04136154154647528
-0.09215262881234118
-0.0312033240933021
0.022127317535857102
-0.021045106640128916
-0.06167797645282164
-0.012156666368602381
0.009429545719390628
-0.038821987183181986
-0.06802686236105487
-0.021045106640128916
0.010699322901037277
-0.04898020463635516
-0.08326418854081465
-0.012156666368602381
0.031015757807383637
-0.010886889186955734
-0.059138422089528346
-0.00834733482366244
0.020857540354210457
-0.026124215366715504
-0.05151975899964846
0.008159768537743979
0.032285534989030286
-0.022314883821775565
-0.0578686449078817
-0.007077557642015792
0.032285534989030286
-0.014696220731895677
-0.0553290905445884
0.005620214174450685
0.032285534989030286
-0.022314883821775565
-0.060408199271174995
0.001810882629510742
0.04117397526055682
-0.02485443818506886
-0.04644065027306187
0.011969100082683924
0.033555312170676935
-0.015965997913542324
-0.04898020463635516
-0.0007286717337825536
0.017048208809270514
-0.03247310127494875
-0.05659886772623505
-0.012156666368602381
0.011969100082683924
-0.02485443818506886
-0.040091764364828635
-0.001998448915429201
0.013238877264330571
-0.03501265563824204
-0.060408199271174995
-0.01850555227683562
0.032285534989030286
-0.009617112005309087
-0.0553290905445884
-0.007077557642015792
0.027206426262443698
-0.01977532945848227
-0.06548730799776158
-0.012156666368602381
0.02339709471750375
-0.01850555227683562
-0.0312033240933021
0.028476203444090343
0.056411301440316586
0.0005411054478640942
-0.027393992548362153
0.032285534989030286
0.08180684507324953
0.04625308398714341
0.004350436992804037
0.04117397526055682
0.05895085580360988
0.0030806598111573894
-0.01977532945848227
0.019587763172563808
0.032285534989030286
-0.0286637697300088
-0.06802686236105487
-0.009617112005309087
0.019587763172563808
-0.03501265563824204
-0.06802686236105487
-0.0032682260970758486
0.04117397526055682
-0.005807780460369144
-0.03755221000153534
0.008159768537743979
0.031015757807383637
-0.022314883821775565
-0.03501265563824204
0.06656951889348976
0.2379894384157872
0.35861827067221874
0.48178665729194353
0.6087643754566083
0.5744803915521488
0.3205249552228193
0.06910907325678306
-0.0286637697300088
-0.060408199271174995
-0.10992950935539425
-0.09342240599398782
-0.0286637697300088
-0.007077557642015792
-0.06802686236105487
-0.08961307444904788
-0.0286637697300088
-0.00834733482366244
-0.06675708517940823
-0.09215262881234118
-0.021045106640128916
0.004350436992804037
-0.06675708517940823
-0.09723173753892778
-0.038821987183181986
-0.007077557642015792
-0.07310597108764147
-0.08834329726740124
-0.014696220731895677
0.02339709471750375
-0.04644065027306187
-0.07183619390599481
-0.009617112005309087
0.014508654445977218
-0.027393992548362153
-0.04898020463635516
0.0030806598111573894
0.04625308398714341
0.008159768537743979
-0.007077557642015792
0.06149041016690318
0.09450461688971602
0.04879263835043671
0.04625308398714341
0.11736060615935567
0.1656121390619283
0.10974194306947578
0.07926729070995625
0.1338677095207621
0.16053303033534172
0.11736060615935567
0.08180684507324953
0.12497926924923555
0.11736060615935567
0.04879263835043671
0.02974598062573699
0.052601969895376646
0.05006241553208335
-0.021045106640128916
-0.08072463417752135
-0.042631318728121925
-0.0286637697300088
-0.08961307444904788
-0.10865973217374761
-0.0553290905445884
-0.05659886772623505
-0.1137388409003342
-0.13278549862503392
-0.07818507981422806
-0.06675708517940823
-0.10992950935539425
-0.12008772680856744
-0.05278953618129511
-0.0337428784565954
-0.10738995499210097
-0.13913438453326715
-0.0845339657224613
-0.0578686449078817
-0.08961307444904788
-0.1111992865370409
-0.059138422089528346
-0.038821987183181986
-0.10358062344716101
-0.10865973217374761
-0.03628243281988869
-0.026124215366715504
-0.07818507981422806
-0.08961307444904788
-0.03501265563824204
-0.022314883821775565
-0.08072463417752135
-0.09850151472057442
-0.014696220731895677
0.014508654445977218
-0.06548730799776158
-0.08326418854081465
-0.027393992548362153
-0.001998448915429201
-0.04771042745470852
-0.06167797645282164
-0.017235775095188973
0.001810882629510742
-0.05659886772623505
-0.06929663954270153
-0.015965997913542324
0.0005411054478640942
-0.040091764364828635
-0.06167797645282164
-0.00834733482366244
0.011969100082683924
-0.038821987183181986
-0.05659886772623505
0.0005411054478640942
0.015778431627623865
-0.04517087309141522
-0.06802686236105487
-0.001998448915429201
0.01831798599091716
-0.04136154154647528
-0.06929663954270153
-0.005807780460369144
0.013238877264330571
-0.040091764364828635
-0.06675708517940823
-0.015965997913542324
0.008159768537743979
-0.04517087309141522
-0.06802686236105487
-0.012156666368602381
0.01831798599091716
-0.03628243281988869
-0.05278953618129511
0.005620214174450685
0.04244375244220347
-0.022314883821775565
-0.03628243281988869
0.031015757807383637
0.04244375244220347
-0.004538003278722496
-0.009617112005309087
0.036094866533970225
0.036094866533970225
-0.01977532945848227
-0.043901095909768574
0.011969100082683924
0.033555312170676935
-0.021045106640128916
-0.03755221000153534
0.015778431627623865
0.010699322901037277
-0.03628243281988869
-0.03501265563824204
0.02339709471750375
0.01831798599091716
-0.017235775095188973
-0.017235775095188973
0.04117397526055682
0.05895085580360988
-0.001998448915429201
-0.014696220731895677
0.05895085580360988
0.08180684507324953
0.022127317535857102
0.015778431627623865
0.09196506252642273
0.1046628343428892
0.032285534989030286
-0.004538003278722496
0.032285534989030286
0.05006241553208335
-0.012156666368602381
-0.04517087309141522
0.010699322901037277
0.04244375244220347
-0.027393992548362153
-0.043901095909768574
0.008159768537743979
0.015778431627623865
-0.042631318728121925
-0.05278953618129511
0.001810882629510742
0.02974598062573699
-0.026124215366715504
-0.04136154154647528
0.004350436992804037
0.03990419807891017
0.07164862762007636
0.22783122096261402
0.4703586626571237
0.6214621472730748
0.5820990546420287
0.44750267338748406
0.28243163977341984
0.09196506252642273
-0.10231084626551437
-0.14802282480479367
-0.05024998181800181
-0.01342644355024903
-0.06929663954270153
-0.08072463417752135
-0.03501265563824204
-0.01342644355024903
-0.0794548569958747
-0.09215262881234118
-0.038821987183181986
-0.014696220731895677
-0.05659886772623505
-0.06929663954270153
-0.00834733482366244
0.005620214174450685
-0.05024998181800181
-0.06167797645282164
-0.009617112005309087
0.014508654445977218
-0.027393992548362153
-0.04517087309141522
0.020857540354210457
0.02593664908079705
-0.03501265563824204
-0.03755221000153534
0.02974598062573699
0.055141524258669944
0.005620214174450685
-0.015965997913542324
0.053871747077023295
0.072918404801723
0.015778431627623865
0.037364643715616874
0.11355127461441572
0.12243971488594226
0.072918404801723
0.07672773634666295
0.1529143672454618
0.15672369879040177
0.09577439407136268
0.08688595379983614
0.14656548133722858
0.15164459006381517
0.07037885043842972
0.053871747077023295
0.09958372561630262
0.07672773634666295
-0.00834733482366244
-0.0312033240933021
0.015778431627623865
0.005620214174450685
-0.08326418854081465
-0.11754817244527414
-0.060408199271174995
-0.04136154154647528
-0.10104106908386773
-0.10104106908386773
-0.0553290905445884
-0.04898020463635516
-0.10738995499210097
-0.10612017781045431
-0.04644065027306187
-0.04517087309141522
-0.09088285163069454
-0.09723173753892778
-0.042631318728121925
-0.04644065027306187
-0.10358062344716101
-0.09850151472057442
-0.043901095909768574
-0.03628243281988869
-0.07818507981422806
-0.07691530263258141
-0.03628243281988869
-0.023584661003422214
-0.081994411359168
-0.10104106908386773
-0.038821987183181986
-0.01850555227683562
-0.06167797645282164
-0.07056641672434817
-0.0007286717337825536
0.001810882629510742
-0.0553290905445884
-0.06675708517940823
0.005620214174450685
0.005620214174450685
-0.07564552545093477
-0.08072463417752135
-0.007077557642015792
0.001810882629510742
-0.05024998181800181
-0.060408199271174995
-0.00834733482366244
0.001810882629510742
-0.04898020463635516
-0.042631318728121925
0.015778431627623865
0.031015757807383637
-0.022314883821775565
-0.03501265563824204
0.006889991356097332
0.008159768537743979
-0.04898020463635516
-0.05278953618129511
0.004350436992804037
0.004350436992804037
-0.0578686449078817
-0.06294775363446829
-0.0007286717337825536
0.008159768537743979
-0.05278953618129511
-0.07056641672434817
-0.00834733482366244
0.004350436992804037
-0.029933546911655447
-0.03755221000153534
0.011969100082683924
0.015778431627623865
-0.04517087309141522
-0.0553290905445884
0.011969100082683924
0.01831798599091716
-0.040091764364828635
-0.042631318728121925
0.011969100082683924
0.020857540354210457
-0.0337428784565954
-0.029933546911655447
0.036094866533970225
0.04117397526055682
-0.02485443818506886
-0.010886889186955734
0.04498330680549676
0.04371352962385011
-0.02485443818506886
-0.021045106640128916
0.04371352962385011
0.03863442089726352
-0.022314883821775565
-0.03247310127494875
0.03863442089726352
0.04244375244220347
-0.014696220731895677
-0.026124215366715504
0.031015757807383637
0.02974598062573699
-0.01850555227683562
-0.004538003278722496
0.06149041016690318
0.05895085580360988
0.0030806598111573894
0.008159768537743979
0.08180684507324953
0.08180684507324953
0.027206426262443698
0.0246668718991504
0.072918404801723
0.06910907325678306
0.005620214174450685
0.004350436992804037
0.05133219271373
0.04879263835043671
-0.00834733482366244
-0.0286637697300088
0.013238877264330571
0.027206426262443698
-0.026124215366715504
-0.0312033240933021
0.015778431627623865
0.005620214174450685
-0.05278953618129511
-0.042631318728121925
0.028476203444090343
0.020857540354210457
-0.03501265563824204
-0.0337428784565954
0.06149041016690318
0.1732308021518082
0.27989208541012656
0.4386142331159575
0.5947968264584952
0.5947968264584952
0.3662369337620986
0.16180280751698836
0.052601969895376646
-0.0286637697300088
-0.10612017781045431
-0.03501265563824204
0.015778431627623865
-0.005807780460369144
-0.06548730799776158
-0.07818507981422806
-0.010886889186955734
0.004350436992804037
-0.0553290905445884
-0.04771042745470852
0.011969100082683924
-0.004538003278722496
-0.015965997913542324
-0.0794548569958747
-0.040091764364828635
-0.00834733482366244
-0.04517087309141522
-0.038821987183181986
0.04117397526055682
0.022127317535857102
-0.07310597108764147
-0.06802686236105487
-0.01850555227683562
0.04625308398714341
-0.015965997913542324
-0.026124215366715504
0.07037885043842972
0.06910907325678306
0.031015757807383637
0.011969100082683924
0.1262490464308822
0.09323483970806938
0.04879263835043671
0.07418818198336966
0.16434236188028165
0.1579934759720484
0.09704417125300932
0.10720238870618248
0.17450057933345484
0.16434236188028165
0.10339305716124254
0.12497926924923555
0.184658796786628
0.1579934759720484
0.08180684507324953
0.06656951889348976
0.10974194306947578
0.05895085580360988
-0.01342644355024903
-0.023584661003422214
0.022127317535857102
-0.0007286717337825536
-0.07818507981422806
-0.06802686236105487
-0.01977532945848227
-0.0286637697300088
-0.07818507981422806
-0.06929663954270153
-0.017235775095188973
-0.042631318728121925
-0.09088285163069454
-0.09596196035728112
-0.01977532945848227
-0.04771042745470852
-0.12389705835350738
-0.10865973217374761
-0.03755221000153534
-0.03628243281988869
-0.09342240599398782
-0.10104106908386773
-0.04517087309141522
-0.04644065027306187
-0.08326418854081465
-0.081994411359168
-0.03501265563824204
-0.0286637697300088
-0.08072463417752135
-0.06929663954270153
-0.00834733482366244
-0.009617112005309087
-0.06802686236105487
-0.04644065027306187
-0.001998448915429201
0.001810882629510742
-0.06802686236105487
-0.06929663954270153
-0.00834733482366244
-0.01977532945848227
-0.06421753081611493
-0.060408199271174995
0.004350436992804037
-0.007077557642015792
-0.06675708517940823
-0.04644065027306187
0.005620214174450685
-0.0032682260970758486
-0.04898020463635516
-0.040091764364828635
0.014508654445977218
-0.004538003278722496
-0.04898020463635516
-0.04898020463635516
0.009429545719390628
0.004350436992804037
-0.06548730799776158
-0.06929663954270153
-0.00834733482366244
0.0005411054478640942
-0.0553290905445884
-0.05024998181800181
0.0005411054478640942
-0.014696220731895677
-0.08834329726740124
-0.06929663954270153
-0.00834733482366244
-0.005807780460369144
-0.042631318728121925
-0.04898020463635516
-0.005807780460369144
-0.014696220731895677
-0.07183619390599481
-0.060408199271174995
-0.007077557642015792
-0.014696220731895677
-0.060408199271174995
-0.038821987183181986
0.02974598062573699
0.0005411054478640942
-0.0553290905445884
-0.04771042745470852
0.022127317535857102
0.02974598062573699
-0.03247310127494875
-0.02485443818506886
0.05133219271373
0.06149041016690318
0.011969100082683924
0.019587763172563808
0.08180684507324953
0.07418818198336966
0.009429545719390628
0.010699322901037277
0.052601969895376646
0.020857540354210457
-0.03628243281988869
-0.009617112005309087
0.034825089352323584
-0.005807780460369144
-0.07056641672434817
-0.06167797645282164
0.0030806598111573894
0.004350436992804037
-0.04898020463635516
-0.0286637697300088
0.01831798599091716
-0.007077557642015792
-0.05405931336294176
-0.03755221000153534
0.02593664908079705
0.04625308398714341
0.09323483970806938
0.27989208541012656
0.4906750975634701
0.5490848479192159
0.46020044520395054
0.3636973793988053
0.22275211223602742
0.04625308398714341
-0.10992950935539425
-0.1353250529883272
-0.06548730799776158
-0.040091764364828635
-0.07691530263258141
-0.06548730799776158
-0.01977532945848227
-0.029933546911655447
-0.09723173753892778
-0.08580374290410794
-0.012156666368602381
-0.014696220731895677
-0.06548730799776158
-0.05659886772623505
-0.004538003278722496
-0.021045106640128916
-0.081994411359168
-0.04898020463635516
0.013238877264330571
0.005620214174450685
-0.06167797645282164
-0.027393992548362153
0.02593664908079705
-0.009617112005309087
-0.06802686236105487
-0.059138422089528346
0.028476203444090343
0.014508654445977218
-0.0312033240933021
0.004350436992804037
0.07037885043842972
0.052601969895376646
0.008159768537743979
0.034825089352323584
0.11355127461441572
0.1046628343428892
0.06149041016690318
0.09323483970806938
0.15164459006381517
0.1338677095207621
0.09323483970806938
0.11228149743276908
0.16180280751698836
0.13005837797582218
0.055141524258669944
0.08688595379983614
0.14529570415558193
0.09323483970806938
0.0005411054478640942
-0.009617112005309087
0.032285534989030286
-0.001998448915429201
-0.0553290905445884
-0.038821987183181986
0.011969100082683924
-0.014696220731895677
-0.07564552545093477
-0.06167797645282164
-0.022314883821775565
-0.043901095909768574
-0.08072463417752135
-0.0578686449078817
-0.014696220731895677
-0.03628243281988869
-0.09342240599398782
-0.07437574826928811
-0.014696220731895677
-0.04517087309141522
-0.08961307444904788
-0.06929663954270153
-0.015965997913542324
-0.038821987183181986
-0.09723173753892778
-0.07564552545093477
-0.014696220731895677
-0.014696220731895677
-0.05278953618129511
-0.04644065027306187
-0.004538003278722496
-0.015965997913542324
-0.0553290905445884
-0.03628243281988869
0.013238877264330571
-0.004538003278722496
-0.05278953618129511
-0.03501265563824204
0.011969100082683924
-0.01850555227683562
-0.06548730799776158
-0.040091764364828635
0.01831798599091716
-0.012156666368602381
-0.07183619390599481
-0.04644065027306187
0.02593664908079705
0.015778431627623865
-0.0578686449078817
-0.05024998181800181
0.0030806598111573894
-0.007077557642015792
-0.0578686449078817
-0.03501265563824204
0.022127317535857102
0.0005411054478640942
-0.060408199271174995
-0.04898020463635516
-0.001998448915429201
0.001810882629510742
-0.022314883821775565
0.001810882629510742
0.04879263835043671
0.017048208809270514
-0.01850555227683562
0.011969100082683924
0.0779975135283096
0.07164862762007636
0.009429545719390628
0.032285534989030286
0.06910907325678306
0.013238877264330571
-0.04771042745470852
-0.03755221000153534
0.010699322901037277
0.001810882629510742
-0.04898020463635516
-0.029933546911655447
0.010699322901037277
-0.014696220731895677
-0.05659886772623505
-0.04898020463635516
0.011969100082683924
-0.007077557642015792
-0.06929663954270153
-0.04898020463635516
0.013238877264330571
-0.026124215366715504
-0.05659886772623505
0.05133219271373
0.24433832432402044
0.37893470557856507
0.4398840102976042
0.4881355432001768
0.47543777138371035
0.2646547592303668
0.011969100082683924
-0.07310597108764147
-0.08072463417752135
-0.1137388409003342
-0.14802282480479367
-0.10358062344716101
-0.03501265563824204
-0.04898020463635516
-0.08072463417752135
-0.06929663954270153
-0.0337428784565954
-0.0578686449078817
-0.09850151472057442
-0.07183619390599481
-0.017235775095188973
-0.04898020463635516
-0.09215262881234118
-0.04898020463635516
-0.010886889186955734
-0.03501265563824204
-0.09977129190222107
-0.059138422089528346
0.004350436992804037
-0.009617112005309087
-0.06421753081611493
-0.03755221000153534
0.008159768537743979
0.0005411054478640942
-0.03247310127494875
0.008159768537743979
0.06022063298525653
0.031015757807383637
-0.01850555227683562
0.013238877264330571
0.08815573098148279
0.09196506252642273
0.04371352962385011
0.072918404801723
0.14275614979228865
0.12497926924923555
0.06656951889348976
0.1021232799795959
0.14275614979228865
0.11355127461441572
0.056411301440316586
0.08180684507324953
0.1287886007941755
0.07926729070995625
0.011969100082683924
0.015778431627623865
0.04371352962385011
-0.017235775095188973
-0.08072463417752135
-0.04898020463635516
0.009429545719390628
-0.03247310127494875
-0.09469218317563448
-0.06802686236105487
-0.00834733482366244
-0.05024998181800181
-0.11246906371868755
-0.08326418854081465
-0.022314883821775565
-0.059138422089528346
-0.10865973217374761
-0.08072463417752135
-0.0286637697300088
-0.04136154154647528
-0.08707352008575459
-0.05659886772623505
0.001810882629510742
-0.03628243281988869
-0.08834329726740124
-0.06167797645282164
0.0005411054478640942
-0.01977532945848227
-0.06675708517940823
-0.038821987183181986
0.0030806598111573894
-0.022314883821775565
-0.0553290905445884
-0.03501265563824204
0.0030806598111573894
-0.017235775095188973
-0.06167797645282164
-0.02485443818506886
0.01831798599091716
-0.001998448915429201
-0.04771042745470852
-0.02485443818506886
0.0246668718991504
-0.00834733482366244
-0.04898020463635516
-0.021045106640128916
0.019587763172563808
-0.009617112005309087
-0.0553290905445884
-0.023584661003422214
0.031015757807383637
0.001810882629510742
-0.038821987183181986
-0.001998448915429201
0.052601969895376646
0.02974598062573699
0.0005411054478640942
0.033555312170676935
0.08180684507324953
0.036094866533970225
-0.0286637697300088
0.0030806598111573894
0.022127317535857102
-0.014696220731895677
-0.06802686236105487
-0.03755221000153534
0.005620214174450685
-0.0286637697300088
-0.0794548569958747
-0.0553290905445884
-0.00834733482366244
-0.040091764364828635
-0.09596196035728112
-0.04136154154647528
0.019587763172563808
-0.021045106640128916
-0.08707352008575459
-0.06802686236105487
-0.00834733482366244
-0.010886889186955734
0.031015757807383637
0.23671966123414057
0.44750267338748406
0.5084519781065232
0.4563911136590106
0.3763951512152718
0.20751478605626766
0.0005411054478640942
-0.1302459442617406
-0.1137388409003342
-0.05151975899964846
-0.09977129190222107
-0.14802282480479367
-0.10231084626551437
-0.038821987183181986
-0.08072463417752135
-0.12643661271680068
-0.06929663954270153
-0.02485443818506886
-0.06294775363446829
-0.10612017781045431
-0.07183619390599481
-0.017235775095188973
-0.0286637697300088
-0.09342240599398782
-0.06294775363446829
-0.00834733482366244
-0.027393992548362153
-0.06929663954270153
-0.0312033240933021
0.02339709471750375
-0.0007286717337825536
-0.04898020463635516
-0.021045106640128916
0.020857540354210457
-0.00834733482366244
-0.059138422089528346
-0.007077557642015792
0.056411301440316586
0.032285534989030286
-0.0032682260970758486
0.05133219271373
0.11228149743276908
0.07672773634666295
0.04625308398714341
0.08942550816312944
0.1364072638840554
0.10720238870618248
0.053871747077023295
0.09196506252642273
0.1338677095207621
0.08688595379983614
0.02339709471750375
0.04625308398714341
0.06910907325678306
0.015778431627623865
-0.038821987183181986
-0.00834733482366244
-0.0007286717337825536
-0.04898020463635516
-0.09596196035728112
-0.0578686449078817
-0.012156666368602381
-0.06548730799776158
-0.10104106908386773
-0.06802686236105487
-0.02485443818506886
-0.06167797645282164
-0.12516683553515404
-0.0845339657224613
-0.02485443818506886
-0.06421753081611493
-0.12389705835350738
-0.06802686236105487
-0.014696220731895677
-0.05659886772623505
-0.11627839526362749
-0.07183619390599481
-0.03501265563824204
-0.06294775363446829
-0.10104106908386773
-0.0553290905445884
-0.012156666368602381
-0.0578686449078817
-0.09977129190222107
-0.05151975899964846
-0.012156666368602381
-0.05659886772623505
-0.08961307444904788
-0.03628243281988869
0.01831798599091716
-0.0286637697300088
-0.07183619390599481
-0.042631318728121925
-0.0032682260970758486
-0.03755221000153534
-0.07437574826928811
-0.022314883821775565
0.008159768537743979
-0.040091764364828635
-0.0794548569958747
-0.03755221000153534
-0.004538003278722496
-0.04771042745470852
-0.07691530263258141
-0.029933546911655447
0.010699322901037277
-0.04771042745470852
-0.08326418854081465
-0.027393992548362153
0.02593664908079705
-0.01850555227683562
-0.06548730799776158
-0.02485443818506886
0.005620214174450685
-0.043901095909768574
-0.07056641672434817
-0.010886889186955734
0.014508654445977218
-0.0312033240933021
-0.0794548569958747
-0.0312033240933021
0.01831798599091716
-0.00834733482366244
-0.05659886772623505
-0.010886889186955734
0.03863442089726352
0.011969100082683924
-0.0286637697300088
0.011969100082683924
0.052601969895376646
0.032285534989030286
0.0005411054478640942
0.056411301440316586
0.10974194306947578
0.056411301440316586
0.0005411054478640942
0.027206426262443698
0.05006241553208335
0.013238877264330571
-0.027393992548362153
-0.00834733482366244
0.02593664908079705
-0.022314883821775565
-0.05405931336294176
-0.00834733482366244
0.02974598062573699
-0.01850555227683562
-0.05278953618129511
0.001810882629510742
0.022127317535857102
-0.01850555227683562
-0.060408199271174995
-0.012156666368602381
0.032285534989030286
0.011969100082683924
0.06910907325678306
0.26973386795695337
0.4868657660185301
0.5668617284622689
0.5262288586495762
0.45512133647736397
0.2557663189588403
0.010699322901037277
-0.1353250529883272
-0.10992950935539425
-0.06294775363446829
-0.0794548569958747
-0.10358062344716101
-0.05278953618129511
-0.017235775095188973
-0.060408199271174995
-0.08707352008575459
-0.040091764364828635
-0.0007286717337825536
-0.04644065027306187
-0.09088285163069454
-0.04771042745470852
-0.007077557642015792
-0.04644065027306187
-0.07818507981422806
-0.03501265563824204
0.011969100082683924
-0.0286637697300088
-0.06929663954270153
-0.03501265563824204
0.0005411054478640942
-0.03501265563824204
-0.0553290905445884
-0.007077557642015792
0.04244375244220347
0.0005411054478640942
-0.038821987183181986
-0.0007286717337825536
0.056411301440316586
0.032285534989030286
0.009429545719390628
0.072918404801723
0.13513748670240874
0.08180684507324953
0.055141524258669944
0.10974194306947578
0.1656121390619283
0.12116993770429561
0.072918404801723
0.13259793233911546
0.17196102497016152
0.12243971488594226
0.07672773634666295
0.12243971488594226
0.11482105179606238
0.052601969895376646
-0.012156666368602381
-0.0032682260970758486
0.028476203444090343
-0.022314883821775565
-0.07310597108764147
-0.04517087309141522
-0.01977532945848227
-0.07564552545093477
-0.13151572144338727
-0.0578686449078817
-0.02485443818506886
-0.07056641672434817
-0.12135750399021408
-0.081994411359168
-0.029933546911655447
-0.06548730799776158
-0.11246906371868755
-0.07818507981422806
-0.03755221000153534
-0.08707352008575459
-0.12262728117186072
-0.060408199271174995
-0.026124215366715504
-0.08834329726740124
-0.08707352008575459
-0.09596196035728112
-0.06167797645282164
-0.09977129190222107
-0.15056237916808698
-0.07183619390599481
-0.00834733482366244
-0.0553290905445884
-0.10992950935539425
-0.08326418854081465
-0.04771042745470852
-0.07564552545093477
-0.09596196035728112
-0.01977532945848227
-0.009617112005309087
-0.06167797645282164
-0.09977129190222107
-0.04136154154647528
-0.00834733482366244
-0.05024998181800181
-0.08580374290410794
-0.029933546911655447
0.005620214174450685
-0.04898020463635516
-0.08580374290410794
-0.0312033240933021
0.005620214174450685
-0.03755221000153534
-0.05024998181800181
0.004350436992804037
0.022127317535857102
-0.0337428784565954
-0.059138422089528346
-0.004538003278722496
0.011969100082683924
-0.04644065027306187
-0.05151975899964846
0.005620214174450685
0.02339709471750375
-0.042631318728121925
-0.07183619390599481
-0.017235775095188973
0.013238877264330571
-0.04771042745470852
-0.08961307444904788
-0.03628243281988869
0.001810882629510742
-0.05024998181800181
-0.07818507981422806
-0.014696220731895677
0.010699322901037277
-0.0312033240933021
-0.0553290905445884
-0.017235775095188973
0.022127317535857102
-0.0286637697300088
-0.0553290905445884
-0.0007286717337825536
0.02339709471750375
-0.03501265563824204
-0.0578686449078817
0.008159768537743979
0.02974598062573699
-0.0337428784565954
-0.04898020463635516
0.032285534989030286
0.06149041016690318
0.0005411054478640942
-0.009617112005309087
0.052601969895376646
0.072918404801723
0.019587763172563808
-0.004538003278722496
0.05006241553208335
0.07418818198336966
0.011969100082683924
-0.027393992548362153
0.011969100082683924
0.02974598062573699
-0.0286637697300088
-0.05659886772623505
-0.009617112005309087
0.008159768537743979
-0.0578686449078817
-0.08072463417752135
-0.01850555227683562
0.0005411054478640942
-0.05024998181800181
-0.07310597108764147
-0.022314883821775565
0.0005411054478640942
-0.05151975899964846
-0.06929663954270153
-0.014696220731895677
0.011969100082683924
0.010699322901037277
0.11355127461441572
0.33957161294751903
0.5287684130128695
0.5198799727413429
0.4386142331159575
0.2951294115898863
0.10339305716124254
-0.08961307444904788
-0.1696090368927867
-0.10992950935539425
-0.06929663954270153
-0.10738995499210097
-0.12389705835350738
-0.06802686236105487
-0.042631318728121925
-0.09342240599398782
-0.10992950935539425
-0.06421753081611493
-0.03755221000153534
-0.08326418854081465
-0.1111992865370409
-0.06167797645282164
-0.03628243281988869
-0.07056641672434817
-0.0845339657224613
-0.03755221000153534
-0.017235775095188973
-0.07564552545093477
-0.08834329726740124
-0.03501265563824204
-0.010886889186955734
-0.07310597108764147
-0.08072463417752135
-0.00834733482366244
0.020857540354210457
-0.026124215366715504
-0.059138422089528346
-0.005807780460369144
0.032285534989030286
-0.00834733482366244
-0.001998448915429201
0.06402996453019648
0.09704417125300932
0.04117397526055682
0.033555312170676935
0.10974194306947578
0.13132815515746882
0.07164862762007636
0.07926729070995625
0.14656548133722858
0.15164459006381517
0.07164862762007636
0.031015757807383637
0.08053706789160289
0.1021232799795959
0.011969100082683924
-0.038821987183181986
-0.012156666368602381
-0.0007286717337825536
-0.06294775363446829
-0.08326418854081465
-0.0286637697300088
-0.022314883821775565
-0.10358062344716101
-0.13659483016997384
-0.06802686236105487
-0.03628243281988869
-0.0794548569958747
-0.09088285163069454
-0.04898020463635516
-0.040091764364828635
-0.09977129190222107
-0.11500861808198085
-0.05024998181800181
-0.027393992548362153
-0.08072463417752135
-0.09596196035728112
-0.03628243281988869
-0.038821987183181986
-0.10231084626551437
-0.09342240599398782
-0.023584661003422214
-0.010886889186955734
-0.06802686236105487
-0.08961307444904788
-0.03501265563824204
-0.010886889186955734
-0.06421753081611493
-0.0794548569958747
-0.0286637697300088
-0.00834733482366244
-0.06802686236105487
-0.08580374290410794
-0.03247310127494875
-0.014696220731895677
-0.07310597108764147
-0.09596196035728112
-0.038821987183181986
-0.00834733482366244
-0.04136154154647528
-0.060408199271174995
0.0005411054478640942
0.031015757807383637
-0.009617112005309087
-0.027393992548362153
0.02339709471750375
0.04117397526055682
-0.007077557642015792
-0.03755221000153534
0.013238877264330571
0.031015757807383637
-0.01977532945848227
-0.0286637697300088
0.014508654445977218
0.02593664908079705
-0.015965997913542324
-0.01977532945848227
0.04244375244220347
0.04879263835043671
-0.01977532945848227
-0.038821987183181986
0.02339709471750375
0.06022063298525653
-0.001998448915429201
-0.0286637697300088
0.032285534989030286
0.06910907325678306
0.01831798599091716
-0.004538003278722496
0.06276018734854982
0.07164862762007636
0.008159768537743979
0.008159768537743979
0.07418818198336966
0.09958372561630262
0.04244375244220347
0.011969100082683924
0.056411301440316586
0.05133219271373
-0.010886889186955734
-0.029933546911655447
0.04117397526055682
0.04244375244220347
-0.01850555227683562
-0.03247310127494875
0.013238877264330571
0.033555312170676935
-0.012156666368602381
-0.027393992548362153
0.02339709471750375
0.04498330680549676
-0.014696220731895677
-0.01977532945848227
0.032285534989030286
0.02593664908079705
-0.015965997913542324
0.05133219271373
0.2519569874139003
0.42718623848113774
0.4830564344735902
0.4868657660185301
0.46147022238559715
0.2671943135936601
0.019587763172563808
-0.10104106908386773
-0.07564552545093477
-0.0553290905445884
-0.0845339657224613
-0.07310597108764147
-0.005807780460369144
0.005620214174450685
-0.05024998181800181
-0.06167797645282164
0.008159768537743979
-0.005807780460369144
-0.043901095909768574
-0.05024998181800181
0.011969100082683924
0.017048208809270514
-0.038821987183181986
-0.04771042745470852
0.011969100082683924
0.03863442089726352
-0.022314883821775565
-0.03628243281988869
0.02974598062573699
0.032285534989030286
-0.022314883821775565
-0.029933546911655447
0.032285534989030286
0.04752286116879006
-0.004538003278722496
-0.007077557642015792
0.06656951889348976
0.09196506252642273
0.032285534989030286
0.022127317535857102
0.09323483970806938
0.12243971488594226
0.07672773634666295
0.07418818198336966
0.14529570415558193
0.15418414442710848
0.09450461688971602
0.09323483970806938
0.15037481288216853
0.16434236188028165
0.09958372561630262
0.07926729070995625
0.11736060615935567
0.10720238870618248
0.031015757807383637
0.015778431627623865
0.06022063298525653
0.06149041016690318
-0.022314883821775565
-0.05278953618129511
-0.007077557642015792
-0.00834733482366244
-0.06802686236105487
-0.07691530263258141
-0.027393992548362153
-0.009617112005309087
-0.06548730799776158
-0.07564552545093477
-0.010886889186955734
0.009429545719390628
-0.0553290905445884
-0.07310597108764147
-0.021045106640128916
-0.007077557642015792
-0.06294775363446829
-0.07437574826928811
-0.012156666368602381
-0.0007286717337825536
-0.0578686449078817
-0.06548730799776158
0.0005411054478640942
0.009429545719390628
-0.0553290905445884
-0.05405931336294176
0.02339709471750375
0.010699322901037277
-0.04136154154647528
-0.05151975899964846
0.0005411054478640942
0.008159768537743979
-0.04771042745470852
-0.04898020463635516
0.015778431627623865
0.02593664908079705
-0.03501265563824204
-0.04771042745470852
0.010699322901037277
0.031015757807383637
-0.03628243281988869
-0.03247310127494875
0.0246668718991504
0.02339709471750375
-0.027393992548362153
-0.03628243281988869
0.006889991356097332
0.011969100082683924
-0.038821987183181986
-0.03755221000153534
0.004350436992804037
0.013238877264330571
-0.03755221000153534
-0.042631318728121925
-0.0007286717337825536
0.017048208809270514
-0.03755221000153534
-0.0553290905445884
0.004350436992804037
0.006889991356097332
-0.05659886772623505
-0.05405931336294176
0.0030806598111573894
0.010699322901037277
-0.03501265563824204
-0.009617112005309087
0.052601969895376646
0.04244375244220347
-0.010886889186955734
-0.0007286717337825536
0.06276018734854982
0.07037885043842972
0.02339709471750375
0.022127317535857102
0.072918404801723
0.052601969895376646
-0.017235775095188973
-0.03755221000153534
0.011969100082683924
-0.0007286717337825536
-0.05278953618129511
-0.04898020463635516
0.001810882629510742
-0.00834733482366244
-0.06929663954270153
-0.07818507981422806
-0.023584661003422214
-0.001998448915429201
-0.05024998181800181
-0.0578686449078817
0.001810882629510742
-0.001998448915429201
-0.059138422089528346
-0.038821987183181986
0.10974194306947578
0.26592453641201347
0.3738555968519785
0.4932146519267634
0.5592430653723891
0.429725792844431
0.1364072638840554
-0.038821987183181986
-0.06675708517940823
-0.08961307444904788
-0.13278549862503392
-0.11754817244527414
-0.03755221000153534
-0.0337428784565954
-0.08961307444904788
-0.08326418854081465
-0.0286637697300088
-0.03628243281988869
-0.09215262881234118
-0.07818507981422806
-0.007077557642015792
-0.014696220731895677
-0.08961307444904788
-0.08580374290410794
-0.014696220731895677
-0.022314883821775565
-0.08326418854081465
-0.06929663954270153
0.0030806598111573894
-0.004538003278722496
-0.06548730799776158
-0.059138422089528346
0.013238877264330571
0.005620214174450685
-0.06675708517940823
-0.05151975899964846
0.02593664908079705
0.032285534989030286
-0.01977532945848227
-0.00834733482366244
0.06529974171184312
0.07418818198336966
0.034825089352323584
0.05006241553208335
0.13005837797582218
0.13132815515746882
0.07037885043842972
0.06149041016690318
0.12751882361252884
0.12370949206758891
0.05895085580360988
0.055141524258669944
0.10720238870618248
0.08180684507324953
0.011969100082683924
0.004350436992804037
0.04117397526055682
0.008159768537743979
-0.05278953618129511
-0.0553290905445884
-0.0032682260970758486
-0.0312033240933021
-0.08580374290410794
-0.12135750399021408
-0.04898020463635516
-0.04898020463635516
-0.10738995499210097
-0.10231084626551437
-0.0286637697300088
-0.038821987183181986
-0.09850151472057442
-0.08326418854081465
-0.01850555227683562
-0.042631318728121925
-0.10738995499210097
-0.08834329726740124
-0.014696220731895677
-0.0286637697300088
-0.07564552545093477
-0.07310597108764147
-0.01977532945848227
-0.02485443818506886
-0.07818507981422806
-0.07818507981422806
-0.01977532945848227
-0.022314883821775565
-0.07183619390599481
-0.059138422089528346
0.006889991356097332
-0.004538003278722496
-0.05659886772623505
-0.04898020463635516
-0.001998448915429201
-0.0032682260970758486
-0.060408199271174995
-0.05278953618129511
0.015778431627623865
0.013238877264330571
-0.04517087309141522
-0.03628243281988869
0.014508654445977218
-0.009617112005309087
-0.07310597108764147
-0.059138422089528346
0.0030806598111573894
-0.009617112005309087
-0.060408199271174995
-0.04898020463635516
0.001810882629510742
-0.014696220731895677
-0.0794548569958747
-0.06675708517940823
-0.012156666368602381
-0.009617112005309087
-0.060408199271174995
-0.05024998181800181
0.0030806598111573894
-0.021045106640128916
-0.06929663954270153
-0.038821987183181986
0.008159768537743979
-0.009617112005309087
-0.06675708517940823
-0.05278953618129511
-0.001998448915429201
-0.012156666368602381
-0.06929663954270153
-0.040091764364828635
0.001810882629510742
-0.01977532945848227
-0.07183619390599481
-0.0578686449078817
-0.0007286717337825536
-0.004538003278722496
-0.06929663954270153
-0.029933546911655447
0.033555312170676935
0.011969100082683924
-0.05024998181800181
-0.017235775095188973
0.04371352962385011
0.032285534989030286
-0.01977532945848227
0.0030806598111573894
0.06149041016690318
0.022127317535857102
-0.05024998181800181
-0.040091764364828635
-0.0007286717337825536
-0.015965997913542324
-0.07818507981422806
-0.060408199271174995
-0.009617112005309087
-0.040091764364828635
-0.10485040062880767
-0.08834329726740124
-0.04136154154647528
-0.06167797645282164
-0.10992950935539425
-0.08072463417752135
-0.0286637697300088
-0.038821987183181986
-0.11246906371868755
-0.10738995499210097
-0.023584661003422214
0.031015757807383637
0.12243971488594226
0.317985400859526
0.5274986358312228
0.5541639566458024
0.4017906948482048
0.21513344914614754
0.052601969895376646
-0.10992950935539425
-0.20008368925230624
-0.16326015098455346
-0.07691530263258141
-0.07310597108764147
-0.12008772680856744
-0.12135750399021408
-0.08072463417752135
-0.0794548569958747
-0.12643661271680068
-0.09342240599398782
-0.04898020463635516
-0.06929663954270153
-0.12897616708009396
-0.09850151472057442
-0.038821987183181986
-0.05278953618129511
-0.10104106908386773
-0.08834329726740124
-0.029933546911655447
-0.04136154154647528
-0.09215262881234118
-0.06421753081611493
0.006889991356097332
-0.004538003278722496
-0.059138422089528346
-0.040091764364828635
0.015778431627623865
0.0030806598111573894
-0.05278953618129511
-0.017235775095188973
0.057681078621963235
0.05133219271373
0.001810882629510742
0.036094866533970225
0.10720238870618248
0.09704417125300932
0.055141524258669944
0.08180684507324953
0.1529143672454618
0.13259793233911546
0.08180684507324953
0.11228149743276908
0.16434236188028165
0.12370949206758891
0.04371352962385011
0.04625308398714341
0.0754579591650163
0.04244375244220347
-0.042631318728121925
-0.04136154154647528
-0.014696220731895677
-0.060408199271174995
-0.12516683553515404
-0.07691530263258141
-0.03628243281988869
-0.05151975899964846
-0.11881794962692079
-0.08834329726740124
-0.04771042745470852
-0.07437574826928811
-0.12516683553515404
-0.08326418854081465
-0.040091764364828635
-0.0578686449078817
-0.11627839526362749
-0.09850151472057442
-0.04771042745470852
-0.07437574826928811
-0.10865973217374761
-0.08580374290410794
0.001810882629510742
-0.03628243281988869
-0.08961307444904788
-0.059138422089528346
-0.00834733482366244
-0.01977532945848227
-0.0553290905445884
-0.05278953618129511
-0.0032682260970758486
-0.001998448915429201
-0.10738995499210097
-0.0337428784565954
0.03863442089726352
-0.0286637697300088
-0.04517087309141522
-0.03501265563824204
0.015778431627623865
-0.009617112005309087
-0.06929663954270153
-0.040091764364828635
0.005620214174450685
-0.027393992548362153
-0.07564552545093477
-0.06294775363446829
-0.00834733482366244
-0.01977532945848227
-0.07691530263258141
-0.06548730799776158
-0.00834733482366244
-0.0286637697300088
-0.08072463417752135
-0.04898020463635516
0.005620214174450685
-0.01977532945848227
-0.07183619390599481
-0.04517087309141522
-0.004538003278722496
-0.0312033240933021
-0.06929663954270153
-0.023584661003422214
0.013238877264330571
-0.0286637697300088
-0.08580374290410794
-0.05659886772623505
0.005620214174450685
-0.0286637697300088
-0.08580374290410794
-0.0553290905445884
-0.00834733482366244
-0.03501265563824204
-0.08834329726740124
-0.05659886772623505
0.001810882629510742
-0.012156666368602381
-0.07691530263258141
-0.0553290905445884
0.004350436992804037
-0.026124215366715504
-0.07056641672434817
-0.038821987183181986
0.0005411054478640942
-0.0286637697300088
-0.07564552545093477
-0.03247310127494875
0.006889991356097332
-0.015965997913542324
-0.0553290905445884
-0.015965997913542324
0.028476203444090343
0.004350436992804037
-0.03755221000153534
0.013238877264330571
0.06402996453019648
0.04117397526055682
-0.017235775095188973
0.014508654445977218
0.052601969895376646
-0.001998448915429201
-0.05659886772623505
-0.0286637697300088
0.013238877264330571
-0.012156666368602381
-0.07818507981422806
-0.059138422089528346
0.02593664908079705
0.0030806598111573894
-0.059138422089528346
-0.026124215366715504
0.013238877264330571
-0.01850555227683562
-0.06802686236105487
-0.03755221000153534
0.011969100082683924
-0.01977532945848227
-0.05659886772623505
0.04371352962385011
0.22783122096261402
0.35988804785386536
0.45766089084065725
0.5490848479192159
0.5440057391926293
0.3154458464962327
0.04498330680549676
-0.06929663954270153
-0.09342240599398782
-0.09342240599398782
-0.11627839526362749
-0.07310597108764147
-0.0286637697300088
-0.05659886772623505
-0.09088285163069454
-0.0553290905445884
-0.01850555227683562
-0.0553290905445884
-0.09850151472057442
-0.060408199271174995
-0.010886889186955734
-0.04644065027306187
-0.09088285163069454
-0.0578686449078817
-0.0007286717337825536
-0.03628243281988869
-0.07056641672434817
-0.022314883821775565
0.020857540354210457
-0.0286637697300088
-0.06294775363446829
-0.027393992548362153
0.02339709471750375
0.001810882629510742
-0.04136154154647528
0.0005411054478640942
0.03863442089726352
0.014508654445977218
-0.009617112005309087
0.04879263835043671
0.1046628343428892
0.06276018734854982
0.033555312170676935
0.0779975135283096
0.13259793233911546
0.10593261152453584
0.05133219271373
0.1021232799795959
0.15164459006381517
0.12243971488594226
0.06149041016690318
0.08942550816312944
0.12497926924923555
0.0754579591650163
0.022127317535857102
0.04879263835043671
0.07164862762007636
0.011969100082683924
-0.06548730799776158
-0.038821987183181986
0.001810882629510742
-0.027393992548362153
-0.07818507981422806
-0.060408199271174995
-0.03247310127494875
-0.06929663954270153
-0.09977129190222107
-0.06548730799776158
-0.03247310127494875
-0.06548730799776158
-0.10358062344716101
-0.07310597108764147
-0.0286637697300088
-0.0578686449078817
-0.09596196035728112
-0.05024998181800181
-0.017235775095188973
-0.06929663954270153
-0.1137388409003342
-0.04517087309141522
0.019587763172563808
-0.0286637697300088
-0.08707352008575459
-0.04517087309141522
0.010699322901037277
-0.038821987183181986
-0.08072463417752135
-0.0337428784565954
0.001810882629510742
-0.04644065027306187
-0.081994411359168
-0.03755221000153534
0.001810882629510742
-0.04136154154647528
-0.08326418854081465
-0.04898020463635516
0.004350436992804037
-0.027393992548362153
-0.06929663954270153
-0.03628243281988869
0.001810882629510742
-0.04898020463635516
-0.08834329726740124
-0.04517087309141522
0.0005411054478640942
-0.0286637697300088
-0.081994411359168
-0.042631318728121925
0.005620214174450685
-0.0286637697300088
-0.07818507981422806
-0.04771042745470852
-0.0007286717337825536
-0.04644065027306187
-0.081994411359168
-0.0553290905445884
-0.004538003278722496
-0.04644065027306187
-0.08961307444904788
-0.03501265563824204
0.0005411054478640942
-0.05024998181800181
-0.07818507981422806
-0.00834733482366244
0.04498330680549676
0.004350436992804037
-0.059138422089528346
-0.010886889186955734
0.04879263835043671
0.013238877264330571
-0.009617112005309087
0.03990419807891017
0.07418818198336966
0.02593664908079705
-0.015965997913542324
0.017048208809270514
0.031015757807383637
-0.01850555227683562
-0.06421753081611493
-0.03247310127494875
0.001810882629510742
-0.04517087309141522
-0.08072463417752135
-0.04136154154647528
-0.0032682260970758486
-0.04771042745470852
-0.07310597108764147
-0.038821987183181986
0.0005411054478640942
-0.04771042745470852
-0.10104106908386773
-0.043901095909768574
0.010699322901037277
-0.017235775095188973
-0.001998448915429201
0.1732308021518082
0.3662369337620986
0.44750267338748406
0.4449631190241908
0.4386142331159575
0.296399188771533
0.04371352962385011
-0.10992950935539425
-0.12897616708009396
-0.08326418854081465
-0.10992950935539425
-0.1302459442617406
-0.07564552545093477
-0.03501265563824204
-0.07437574826928811
-0.10358062344716101
-0.06421753081611493
-0.03628243281988869
-0.06675708517940823
-0.10231084626551437
-0.04898020463635516
-0.005807780460369144
-0.05024998181800181
-0.08072463417752135
-0.0312033240933021
-0.009617112005309087
-0.04898020463635516
-0.07310597108764147
-0.00834733482366244
0.04625308398714341
0.0005411054478640942
-0.04898020463635516
-0.001998448915429201
0.03863442089726352
0.008159768537743979
-0.029933546911655447
0.04117397526055682
0.07418818198336966
0.036094866533970225
0.011969100082683924
0.06910907325678306
0.13005837797582218
0.09450461688971602
0.06402996453019648
0.12243971488594226
0.1681516934252216
0.10847216588782914
0.07418818198336966
0.14021659542899534
0.17069124778851488
0.11736060615935567
0.06656951889348976
0.10974194306947578
0.12243971488594226
0.04625308398714341
-0.00834733482366244
0.02339709471750375
0.04879263835043671
-0.021045106640128916
-0.07056641672434817
-0.026124215366715504
0.0030806598111573894
-0.04517087309141522
-0.0794548569958747
-0.038821987183181986
-0.005807780460369144
-0.06548730799776158
-0.10992950935539425
-0.04898020463635516
-0.023584661003422214
-0.07056641672434817
-0.09850151472057442
-0.04771042745470852
-0.021045106640128916
-0.07437574826928811
-0.10865973217374761
-0.04898020463635516
0.0005411054478640942
-0.0553290905445884
-0.10992950935539425
-0.06294775363446829
-0.01850555227683562
-0.06294775363446829
-0.09342240599398782
-0.04898020463635516
-0.010886889186955734
-0.04898020463635516
-0.0794548569958747
-0.009617112005309087
0.019587763172563808
-0.03755221000153534
-0.06929663954270153
-0.012156666368602381
0.013238877264330571
-0.03501265563824204
-0.060408199271174995
-0.004538003278722496
0.0246668718991504
-0.01850555227683562
-0.05024998181800181
-0.007077557642015792
0.011969100082683924
-0.029933546911655447
-0.0578686449078817
-0.0007286717337825536
0.03863442089726352
-0.010886889186955734
-0.038821987183181986
0.011969100082683924
0.06149041016690318
0.02339709471750375
0.0030806598111573894
0.055141524258669944
0.08815573098148279
0.028476203444090343
-0.021045106640128916
0.020857540354210457
0.04244375244220347
-0.01342644355024903
-0.059138422089528346
-0.017235775095188973
0.02593664908079705
-0.0337428784565954
-0.04898020463635516
0.0030806598111573894
0.013238877264330571
-0.043901095909768574
-0.06929663954270153
-0.0286637697300088
0.008159768537743979
-0.038821987183181986
-0.0794548569958747
-0.01850555227683562
0.014508654445977218
-0.014696220731895677
0.013238877264330571
0.19354723705815455
0.3636973793988053
0.4386142331159575
0.47543777138371035
0.4995635378349966
0.35099960758233884
0.08180684507324953
-0.0794548569958747
-0.0845339657224613
-0.06802686236105487
-0.10231084626551437
-0.09215262881234118
-0.03755221000153534
-0.009617112005309087
-0.06929663954270153
-0.09850151472057442
-0.04644065027306187
-0.022314883821775565
-0.07310597108764147
-0.10358062344716101
-0.038821987183181986
0.0005411054478640942
-0.0578686449078817
-0.07564552545093477
-0.014696220731895677
0.010699322901037277
-0.05024998181800181
-0.07310597108764147
-0.026124215366715504
0.005620214174450685
-0.0337428784565954
-0.05278953618129511
-0.001998448915429201
0.032285534989030286
-0.021045106640128916
-0.04644065027306187
0.02339709471750375
0.05133219271373
-0.001998448915429201
-0.01850555227683562
0.052601969895376646
0.09704417125300932
0.057681078621963235
0.04244375244220347
0.08180684507324953
0.11990016052264896
0.10339305716124254
0.0754579591650163
0.1046628343428892
0.11482105179606238
0.05895085580360988
0.033555312170676935
0.0779975135283096
0.09196506252642273
0.015778431627623865
-0.038821987183181986
0.0005411054478640942
0.011969100082683924
-0.05024998181800181
-0.0794548569958747
-0.027393992548362153
-0.00834733482366244
-0.06929663954270153
-0.10104106908386773
-0.05278953618129511
-0.03628243281988869
-0.08961307444904788
-0.1111992865370409
-0.038821987183181986
-0.017235775095188973
-0.08072463417752135
-0.1111992865370409
-0.04898020463635516
-0.029933546911655447
-0.059138422089528346
-0.09088285163069454
-0.03501265563824204
-0.012156666368602381
-0.07183619390599481
-0.08580374290410794
-0.017235775095188973
-0.00834733482366244
-0.06548730799776158
-0.06929663954270153
-0.009617112005309087
0.011969100082683924
-0.03628243281988869
-0.06167797645282164
-0.017235775095188973
0.010699322901037277
-0.060408199271174995
-0.07691530263258141
-0.001998448915429201
0.0005411054478640942
-0.04771042745470852
-0.05405931336294176
-0.007077557642015792
0.015778431627623865
-0.03755221000153534
-0.04898020463635516
0.019587763172563808
0.033555312170676935
-0.07564552545093477
-0.03247310127494875
0.052601969895376646
0.1021232799795959
0.014508654445977218
0.011969100082683924
0.06149041016690318
0.04371352962385011
-0.0286637697300088
-0.04517087309141522
0.0030806598111573894
0.004350436992804037
-0.05024998181800181
-0.06675708517940823
-0.017235775095188973
-0.009617112005309087
-0.0578686449078817
-0.07183619390599481
-0.009617112005309087
-0.007077557642015792
-0.060408199271174995
-0.06929663954270153
-0.009617112005309087
0.020857540354210457
-0.03247310127494875
-0.060408199271174995
0.011969100082683924
0.10720238870618248
0.1922774598765079
0.3370320585842257
0.5224195271046362
0.5617826197356823
0.40686980357479136
0.19735656860309447
0.07926729070995625
-0.007077557642015792
-0.12262728117186072
-0.13278549862503392
-0.04898020463635516
-0.01977532945848227
-0.07056641672434817
-0.08072463417752135
-0.014696220731895677
-0.00834733482366244
-0.06929663954270153
-0.0794548569958747
-0.009617112005309087
-0.007077557642015792
-0.081994411359168
-0.08326418854081465
-0.009617112005309087
0.011969100082683924
-0.059138422089528346
-0.07437574826928811
-0.010886889186955734
0.0030806598111573894
-0.05151975899964846
-0.07056641672434817
0.0030806598111573894
0.05006241553208335
-0.010886889186955734
-0.0312033240933021
0.032285534989030286
0.05006241553208335
0.015778431627623865
0.010699322901037277
0.06402996453019648
0.08688595379983614
0.022127317535857102
0.028476203444090343
0.09323483970806938
0.11355127461441572
0.072918404801723
0.06022063298525653
0.11228149743276908
0.1491050357005219
0.09323483970806938
0.06402996453019648
0.11228149743276908
0.10720238870618248
0.02593664908079705
0.004350436992804037
0.052601969895376646
0.04244375244220347
-0.040091764364828635
-0.07183619390599481
-0.03755221000153534
-0.014696220731895677
-0.06929663954270153
-0.0794548569958747
-0.038821987183181986
-0.040091764364828635
-0.09723173753892778
-0.10104106908386773
-0.04898020463635516
-0.03247310127494875
-0.09596196035728112
-0.1137388409003342
-0.06167797645282164
-0.042631318728121925
-0.09723173753892778
-0.09596196035728112
-0.040091764364828635
-0.03628243281988869
-0.09342240599398782
-0.08961307444904788
-0.0286637697300088
-0.022314883821775565
-0.08834329726740124
-0.09088285163069454
-0.022314883821775565
-0.015965997913542324
-0.07818507981422806
-0.08961307444904788
-0.02485443818506886
-0.007077557642015792
-0.06294775363446829
-0.0794548569958747
-0.007077557642015792
-0.0032682260970758486
-0.060408199271174995
-0.06802686236105487
-0.012156666368602381
-0.005807780460369144
-0.05278953618129511
-0.06548730799776158
-0.017235775095188973
-0.009617112005309087
-0.08961307444904788
-0.08961307444904788
-0.042631318728121925
-0.004538003278722496
-0.05024998181800181
-0.04771042745470852
0.006889991356097332
0.009429545719390628
-0.06675708517940823
-0.012156666368602381
0.072918404801723
0.04752286116879006
0.0005411054478640942
-0.0007286717337825536
-0.0007286717337825536
0.020857540354210457
-0.059138422089528346
-0.06167797645282164
-0.00834733482366244
-0.00834733482366244
-0.04136154154647528
-0.0794548569958747
-0.06675708517940823
-0.0286637697300088
-0.10104106908386773
-0.08961307444904788
-0.021045106640128916
-0.040091764364828635
-0.09850151472057442
-0.05278953618129511
0.005620214174450685
0.008159768537743979
-0.059138422089528346
-0.042631318728121925
-0.001998448915429201
0.10847216588782914
0.24179876996072713
0.40686980357479136
0.5389266304660427
0.5186101955596963
0.3662369337620986
0.11355127461441572
0.019587763172563808
-0.04136154154647528
-0.12008772680856744
-0.12389705835350738
-0.04771042745470852
-0.038821987183181986
-0.09088285163069454
-0.08961307444904788
-0.03247310127494875
-0.03628243281988869
-0.10231084626551437
-0.10358062344716101
-0.02485443818506886
-0.01850555227683562
-0.08580374290410794
-0.09342240599398782
-0.027393992548362153
-0.01850555227683562
-0.06675708517940823
-0.06294775363446829
-0.012156666368602381
-0.007077557642015792
-0.0578686449078817
-0.05405931336294176
0.02593664908079705
0.01831798599091716
-0.05024998181800181
-0.04898020463635516
0.04244375244220347
0.036094866533970225
-0.009617112005309087
-0.0007286717337825536
0.06529974171184312
0.07672773634666295
0.04244375244220347
0.052601969895376646
0.12243971488594226
0.12370949206758891
0.072918404801723
0.09069528534477608
0.15037481288216853
0.1579934759720484
0.09450461688971602
0.08942550816312944
0.1338677095207621
0.12370949206758891
0.04117397526055682
0.0246668718991504
0.05895085580360988
0.03990419807891017
-0.0286637697300088
-0.03628243281988869
0.011969100082683924
0.008159768537743979
-0.0553290905445884
-0.06929663954270153
-0.004538003278722496
-0.00834733482366244
-0.0794548569958747
-0.0578686449078817
0.005620214174450685
-0.009617112005309087
-0.08072463417752135
-0.07564552545093477
-0.004538003278722496
-0.00834733482366244
-0.06294775363446829
-0.05278953618129511
0.0005411054478640942
-0.009617112005309087
-0.06675708517940823
-0.060408199271174995
0.001810882629510742
0.0030806598111573894
-0.05278953618129511
-0.04136154154647528
0.011969100082683924
-0.0007286717337825536
-0.06548730799776158
-0.0553290905445884
0.032285534989030286
0.028476203444090343
-0.03628243281988869
-0.040091764364828635
0.0246668718991504
0.01831798599091716
-0.043901095909768574
-0.0286637697300088
0.04117397526055682
0.032285534989030286
-0.0286637697300088
-0.0286637697300088
0.04371352962385011
0.04244375244220347
-0.017235775095188973
-0.012156666368602381
0.019587763172563808
0.028476203444090343
-0.01977532945848227
-0.009617112005309087
0.04371352962385011
0.033555312170676935
-0.02485443818506886
-0.0286637697300088
0.04625308398714341
0.02974598062573699
-0.029933546911655447
-0.009617112005309087
0.03863442089726352
0.031015757807383637
-0.03755221000153534
-0.022314883821775565
0.037364643715616874
0.04117397526055682
-0.010886889186955734
0.004350436992804037
0.052601969895376646
0.03990419807891017
-0.01977532945848227
-0.0007286717337825536
0.06402996453019648
0.06022063298525653
0.009429545719390628
0.02339709471750375
0.10720238870618248
0.09704417125300932
0.033555312170676935
0.06910907325678306
0.10974194306947578
0.08180684507324953
0.014508654445977218
0.011969100082683924
0.06529974171184312
0.052601969895376646
-0.014696220731895677
-0.017235775095188973
0.028476203444090343
0.020857540354210457
-0.04771042745470852
-0.026124215366715504
0.034825089352323584
0.020857540354210457
-0.040091764364828635
-0.023584661003422214
0.031015757807383637
0.019587763172563808
-0.040091764364828635
-0.0286637697300088
0.027206426262443698
0.02593664908079705
0.01831798599091716
0.1579934759720484
0.39163247739503154
0.5490848479192159
0.5567035110090958
0.5198799727413429
0.3941720317583248
0.1529143672454618
-0.06929663954270153
-0.10992950935539425
-0.04771042745470852
-0.0286637697300088
-0.06929663954270153
-0.042631318728121925
0.008159768537743979
-0.021045106640128916
-0.08072463417752135
-0.06929663954270153
0.001810882629510742
-0.004538003278722496
-0.060408199271174995
-0.038821987183181986
0.033555312170676935
0.0246668718991504
-0.042631318728121925
-0.038821987183181986
0.02593664908079705
0.010699322901037277
-0.05151975899964846
-0.026124215366715504
0.03863442089726352
0.017048208809270514
-0.04136154154647528
-0.017235775095188973
0.04244375244220347
0.032285534989030286
-0.023584661003422214
-0.010886889186955734
0.07672773634666295
0.07926729070995625
0.01831798599091716
0.05133219271373
0.11990016052264896
0.11355127461441572
0.055141524258669944
0.08180684507324953
0.1656121390619283
0.15672369879040177
0.1021232799795959
0.10974194306947578
0.1529143672454618
0.12751882361252884
0.06149041016690318
0.07926729070995625
0.12370949206758891
0.08688595379983614
0.005620214174450685
-0.007077557642015792
0.033555312170676935
0.008159768537743979
-0.07310597108764147
-0.07056641672434817
-0.02485443818506886
-0.03247310127494875
-0.07818507981422806
-0.06167797645282164
-0.014696220731895677
-0.038821987183181986
-0.09088285163069454
-0.0845339657224613
-0.042631318728121925
-0.04898020463635516
-0.09723173753892778
-0.07564552545093477
-0.01850555227683562
-0.038821987183181986
-0.09596196035728112
-0.06929663954270153
-0.00834733482366244
-0.038821987183181986
-0.09342240599398782
-0.06929663954270153
-0.00834733482366244
-0.022314883821775565
-0.07056641672434817
-0.040091764364828635
0.01831798599091716
-0.009617112005309087
-0.07564552545093477
