-0.07806512130815219
-0.16113005372916214
-0.1322379033218543
-0.03833841449810395
-0.0690363243058685
-0.1322379033218543
-0.09431695591226283
-0.00944626409079615
-0.06361904610449828
-0.13043214392139757
-0.08709391831043586
-0.004028985889425937
-0.025698098694906787
-0.10876303111591672
-0.08348239950952241
-0.0004174670885124613
-0.025698098694906787
-0.10334575291454651
-0.0690363243058685
0.0031940517124010143
-0.01847506109307984
-0.10695727171545999
-0.07445360250723872
0.0031940517124010143
-0.03653265509764722
-0.11418030931728694
-0.07806512130815219
-0.014863542292166363
-0.04736721150038765
-0.10334575291454651
-0.06361904610449828
-0.0022232264889691994
-0.045561452099930906
-0.12682062512048412
-0.10334575291454651
-0.031115376896277
-0.07445360250723872
-0.1448782191250515
-0.08709391831043586
-0.013057782891709627
-0.04736721150038765
-0.13043214392139757
-0.10153999351408978
-0.022086579893993315
-0.06361904610449828
-0.12682062512048412
-0.08889967771089262
-0.013057782891709627
-0.03833841449810395
-0.12862638452094083
-0.09973423411363304
-0.0022232264889691994
-0.03653265509764722
-0.10876303111591672
-0.0690363243058685
0.012222848714684703
-0.04736721150038765
-0.10153999351408978
-0.06000752730358481
0.006805570513314489
-0.01847506109307984
-0.07987088070860893
-0.04014417389856069
0.03569772092062229
0.021251645716968394
-0.04194993329901743
0.0031940517124010143
0.06820139012884358
0.04292075852244925
-0.02750385809536353
0.010417089314227966
0.08264746533249746
0.03208620211970882
-0.06181328670404154
-0.022086579893993315
0.05375531492518967
0.0031940517124010143
-0.0979284747131763
-0.09070543711134935
-0.02750385809536353
-0.050978730301301116
-0.11056879051637347
-0.07445360250723872
0.0031940517124010143
-0.045561452099930906
-0.09431695591226283
-0.04014417389856069
0.046532277323362715
-0.004028985889425937
-0.07445360250723872
-0.049172970900844375
0.05736683372610314
0.1512663225498535
0.3282307437946138
0.6135407290667784
0.8266203383206735
0.7507784435014905
0.4907490898357202
0.21988517976720956
0.060978352527016624
-0.12682062512048412
-0.24780650495108555
-0.16293581312961886
-0.045561452099930906
-0.06542480550495502
-0.1322379033218543
-0.08709391831043586
-0.04014417389856069
-0.058201767903128074
-0.10334575291454651
-0.06181328670404154
-0.011252023491252887
-0.04736721150038765
-0.12501486572002737
-0.07625936190769544
0.006805570513314489
-0.04194993329901743
-0.10334575291454651
-0.06542480550495502
0.012222848714684703
-0.025698098694906787
-0.08889967771089262
-0.043755692699474165
0.030280442719252083
-0.0004174670885124613
-0.06000752730358481
-0.016669301692623102
0.05736683372610314
0.023057405117425128
-0.032921136296733745
0.023057405117425128
0.10431657813797833
0.08445322473295422
0.046532277323362715
0.11153961573980528
0.20182758576264218
0.14584904434848328
0.07903594653158401
0.14765480374894005
0.21446790156583934
0.1837699917580748
0.12779145034391592
0.1801584729571613
0.24336005197314714
0.17654695415624785
0.06458987132793009
0.08625898413341095
0.12959720974437267
0.07361866833021379
-0.004028985889425937
0.02486316451788187
0.07000714952930032
0.0031940517124010143
-0.08348239950952241
-0.05459024910221459
0.010417089314227966
-0.06000752730358481
-0.13765518152322453
-0.07987088070860893
0.006805570513314489
-0.04736721150038765
-0.11779182811820041
-0.08889967771089262
-0.032921136296733745
-0.06181328670404154
-0.12140334691911389
-0.06542480550495502
0.010417089314227966
-0.045561452099930906
-0.10334575291454651
-0.06000752730358481
-0.004028985889425937
-0.049172970900844375
-0.10695727171545999
-0.045561452099930906
0.014028608115141441
-0.011252023491252887
-0.050978730301301116
-0.016669301692623102
0.021251645716968394
-0.02750385809536353
-0.06000752730358481
-0.0004174670885124613
0.02847468331879534
-0.02750385809536353
-0.09251119651180609
-0.04194993329901743
0.02486316451788187
-0.01847506109307984
-0.08348239950952241
-0.032921136296733745
0.01583436751559818
-0.031115376896277
-0.07625936190769544
-0.022086579893993315
0.03208620211970882
-0.01847506109307984
-0.08528815890997914
-0.045561452099930906
0.02847468331879534
-0.025698098694906787
-0.10153999351408978
-0.043755692699474165
0.021251645716968394
-0.014863542292166363
-0.09251119651180609
-0.03653265509764722
0.026668923918338604
-0.016669301692623102
-0.07445360250723872
-0.007640504690339413
0.07000714952930032
0.021251645716968394
-0.04194993329901743
0.012222848714684703
0.09709354053615138
0.04292075852244925
-0.05459024910221459
-0.016669301692623102
0.046532277323362715
-0.014863542292166363
-0.09973423411363304
-0.045561452099930906
-0.014863542292166363
-0.08528815890997914
-0.1322379033218543
-0.06000752730358481
0.021251645716968394
-0.050978730301301116
-0.10515151231500326
-0.029309617495820266
0.01583436751559818
-0.0690363243058685
-0.13043214392139757
-0.050978730301301116
0.012222848714684703
-0.032921136296733745
-0.029309617495820266
0.18557575115853153
0.4763030146320663
0.6478501576754565
0.6767423080827641
0.6803538268836777
0.5322815560462252
0.1801584729571613
-0.058201767903128074
-0.1123745499168302
-0.09251119651180609
-0.11779182811820041
-0.15210125672687844
-0.07806512130815219
-0.004028985889425937
-0.05459024910221459
-0.1466839785255082
-0.09973423411363304
-0.016669301692623102
-0.06000752730358481
-0.10334575291454651
-0.045561452099930906
-0.01847506109307984
-0.07445360250723872
-0.12320910631957063
-0.049172970900844375
0.014028608115141441
-0.032921136296733745
-0.11779182811820041
-0.07264784310678198
-0.0004174670885124613
-0.03653265509764722
-0.07445360250723872
-0.004028985889425937
0.0501437961242762
0.014028608115141441
-0.04194993329901743
0.05556107432564641
0.11153961573980528
0.041114999121992506
0.010417089314227966
0.10431657813797833
0.15487784135076696
0.10070505933706486
0.05375531492518967
0.14043176614711309
0.21988517976720956
0.14223752554756983
0.08264746533249746
0.14223752554756983
0.1982160669617287
0.14404328494802654
0.07181290892975704
0.12237417214254571
0.1512663225498535
0.05736683372610314
-0.03472689569719048
0.017640126916054915
0.06639563072838683
-0.016669301692623102
-0.09251119651180609
-0.043755692699474165
-0.004028985889425937
-0.0690363243058685
-0.09070543711134935
-0.04736721150038765
-0.03472689569719048
-0.10334575291454651
-0.13765518152322453
-0.0690363243058685
-0.011252023491252887
-0.09612271531271956
-0.15210125672687844
-0.07987088070860893
-0.016669301692623102
-0.07445360250723872
-0.1322379033218543
-0.06181328670404154
-0.004028985889425937
-0.045561452099930906
-0.11779182811820041
-0.04194993329901743
0.008611329913771228
-0.04736721150038765
-0.09973423411363304
-0.049172970900844375
0.0049998111128577525
-0.06542480550495502
-0.09431695591226283
-0.016669301692623102
0.02847468331879534
-0.04014417389856069
-0.07264784310678198
-0.016669301692623102
0.026668923918338604
-0.011252023491252887
-0.0690363243058685
-0.004028985889425937
0.04833803672381946
-0.014863542292166363
-0.06723056490541175
-0.0004174670885124613
0.03750348032107903
-0.025698098694906787
-0.04014417389856069
0.03208620211970882
0.07181290892975704
0.026668923918338604
-0.00944626409079615
0.07542442773067053
0.11153961573980528
0.046532277323362715
-0.004028985889425937
0.060978352527016624
0.07903594653158401
-0.011252023491252887
-0.08348239950952241
-0.03472689569719048
-0.005834745289882675
-0.04736721150038765
-0.08889967771089262
-0.043755692699474165
-0.016669301692623102
-0.07625936190769544
-0.1123745499168302
-0.05639600850267133
0.008611329913771228
-0.06181328670404154
-0.10515151231500326
-0.043755692699474165
0.006805570513314489
-0.06181328670404154
-0.11779182811820041
0.006805570513314489
0.16210087895259392
0.29933859338730606
0.4799145334329798
0.7435554058996635
0.8193973007188465
0.5738140222567302
0.22891397676949324
0.0501437961242762
-0.045561452099930906
-0.16113005372916214
-0.19543948233784014
-0.09612271531271956
-0.029309617495820266
-0.10334575291454651
-0.13946094092368128
-0.06000752730358481
0.012222848714684703
-0.058201767903128074
-0.13043214392139757
-0.04736721150038765
-0.0004174670885124613
-0.058201767903128074
-0.11779182811820041
-0.05639600850267133
0.006805570513314489
-0.05459024910221459
-0.08889967771089262
-0.031115376896277
0.010417089314227966
-0.043755692699474165
-0.09251119651180609
-0.029309617495820266
0.046532277323362715
-0.016669301692623102
-0.058201767903128074
0.02486316451788187
0.05375531492518967
0.014028608115141441
-0.016669301692623102
0.07000714952930032
0.12237417214254571
0.07000714952930032
0.041114999121992506
0.12779145034391592
0.1801584729571613
0.09889929993660812
0.08264746533249746
0.1693239165544209
0.1982160669617287
0.14043176614711309
0.09528778113569464
0.16210087895259392
0.18557575115853153
0.08625898413341095
0.012222848714684703
0.05375531492518967
0.07000714952930032
-0.029309617495820266
-0.08528815890997914
-0.01847506109307984
-0.005834745289882675
-0.07445360250723872
-0.13404366272231105
-0.07264784310678198
-0.045561452099930906
-0.11598606871774368
-0.12682062512048412
-0.050978730301301116
-0.0004174670885124613
-0.09973423411363304
-0.1647415725300756
-0.058201767903128074
-0.007640504690339413
-0.0979284747131763
-0.1322379033218543
-0.045561452099930906
-0.016669301692623102
-0.10515151231500326
-0.14848973792596495
-0.07445360250723872
-0.0022232264889691994
-0.07264784310678198
-0.11779182811820041
-0.032921136296733745
0.012222848714684703
-0.05639600850267133
-0.09251119651180609
-0.014863542292166363
0.012222848714684703
-0.04194993329901743
-0.058201767903128074
0.017640126916054915
0.041114999121992506
-0.06000752730358481
-0.10334575291454651
0.012222848714684703
0.05736683372610314
-0.03653265509764722
-0.08889967771089262
-0.020280820493536574
0.014028608115141441
-0.06000752730358481
-0.0979284747131763
-0.022086579893993315
0.012222848714684703
-0.058201767903128074
-0.07445360250723872
-0.013057782891709627
0.01583436751559818
-0.07264784310678198
-0.07445360250723872
0.041114999121992506
0.09709354053615138
0.03750348032107903
0.0031940517124010143
0.05917259312655988
0.09528778113569464
0.033891961520165555
0.0013882923119442766
0.07000714952930032
0.08625898413341095
-0.0022232264889691994
-0.045561452099930906
0.014028608115141441
0.03569772092062229
-0.045561452099930906
-0.10334575291454651
-0.05639600850267133
-0.025698098694906787
-0.07445360250723872
-0.10876303111591672
-0.06181328670404154
-0.032921136296733745
-0.10695727171545999
-0.11056879051637347
-0.043755692699474165
-0.022086579893993315
-0.08528815890997914
-0.1123745499168302
-0.031115376896277
0.02486316451788187
0.010417089314227966
0.1837699917580748
0.5088066838402876
0.7345266088973799
0.7038286990896152
0.5629794658539897
0.3769862476069457
0.14584904434848328
-0.1322379033218543
-0.2261373921456047
-0.14848973792596495
-0.09973423411363304
-0.13946094092368128
-0.17196461013190256
-0.07445360250723872
-0.029309617495820266
-0.1322379033218543
-0.16113005372916214
-0.06542480550495502
-0.01847506109307984
-0.10515151231500326
-0.12140334691911389
-0.050978730301301116
-0.025698098694906787
-0.10334575291454651
-0.12140334691911389
-0.032921136296733745
0.017640126916054915
-0.06181328670404154
-0.09251119651180609
-0.022086579893993315
0.019445886316511656
-0.04736721150038765
-0.07445360250723872
0.02486316451788187
0.05556107432564641
-0.007640504690339413
-0.013057782891709627
0.06458987132793009
0.08264746533249746
0.006805570513314489
-0.0022232264889691994
0.12598569094345918
0.1693239165544209
0.10070505933706486
0.09709354053615138
0.18557575115853153
0.2126621421653826
0.1368202473461996
0.12779145034391592
0.22169093916766627
0.23433125497086346
0.12959720974437267
0.07542442773067053
0.14043176614711309
0.10973385633934855
-0.004028985889425937
-0.04014417389856069
0.017640126916054915
0.03750348032107903
-0.058201767903128074
-0.09431695591226283
-0.03472689569719048
-0.03653265509764722
-0.11779182811820041
-0.1322379033218543
-0.05278448970175786
-0.011252023491252887
-0.0690363243058685
-0.11418030931728694
-0.03653265509764722
-0.031115376896277
-0.0979284747131763
-0.09070543711134935
-0.004028985889425937
0.012222848714684703
-0.06542480550495502
-0.09973423411363304
-0.016669301692623102
-0.014863542292166363
-0.08348239950952241
-0.08348239950952241
0.0049998111128577525
0.021251645716968394
-0.08348239950952241
-0.09973423411363304
0.008611329913771228
0.012222848714684703
-0.07264784310678198
-0.07084208370632523
0.01583436751559818
0.021251645716968394
-0.06361904610449828
-0.0690363243058685
0.012222848714684703
0.02486316451788187
-0.06723056490541175
-0.09973423411363304
-0.01847506109307984
0.006805570513314489
-0.0690363243058685
-0.07625936190769544
0.023057405117425128
0.010417089314227966
-0.08528815890997914
-0.08528815890997914
-0.011252023491252887
0.030280442719252083
-0.05278448970175786
-0.07445360250723872
0.0049998111128577525
0.026668923918338604
-0.058201767903128074
-0.07445360250723872
-0.0022232264889691994
0.012222848714684703
-0.07264784310678198
-0.08167664010906565
0.012222848714684703
0.0013882923119442766
-0.06000752730358481
-0.06181328670404154
0.02847468331879534
0.046532277323362715
-0.032921136296733745
-0.05639600850267133
0.026668923918338604
0.05556107432564641
-0.03472689569719048
-0.03833841449810395
0.04472651792290599
0.07181290892975704
-0.007640504690339413
-0.007640504690339413
0.07903594653158401
0.08264746533249746
0.0031940517124010143
0.021251645716968394
0.12959720974437267
0.12779145034391592
0.02847468331879534
-0.013057782891709627
0.06458987132793009
0.06820139012884358
-0.013057782891709627
-0.025698098694906787
0.046532277323362715
0.019445886316511656
-0.045561452099930906
-0.07445360250723872
0.014028608115141441
0.026668923918338604
-0.04014417389856069
-0.05639600850267133
0.012222848714684703
0.05375531492518967
-0.04014417389856069
-0.05459024910221459
0.04833803672381946
0.05375531492518967
-0.020280820493536574
0.0013882923119442766
0.1927987887603585
0.44560510482430177
0.609929210265865
0.7598072405037741
0.8410664135243273
0.6496559170759131
0.2271082173690365
-0.04736721150038765
-0.09070543711134935
-0.08348239950952241
-0.12320910631957063
-0.08709391831043586
0.012222848714684703
0.0031940517124010143
-0.07264784310678198
-0.07806512130815219
-0.004028985889425937
0.006805570513314489
-0.08167664010906565
-0.09612271531271956
-0.014863542292166363
-0.011252023491252887
-0.0979284747131763
-0.10153999351408978
0.0049998111128577525
-0.0022232264889691994
-0.08528815890997914
-0.07806512130815219
0.012222848714684703
0.010417089314227966
-0.08167664010906565
-0.06000752730358481
0.03930923972153577
0.05194955552473293
-0.045561452099930906
-0.04014417389856069
0.05375531492518967
0.07181290892975704
0.02847468331879534
0.03750348032107903
0.1368202473461996
0.1512663225498535
0.07542442773067053
0.09889929993660812
0.19099302935990176
0.21085638276492585
0.12779145034391592
0.12598569094345918
0.21446790156583934
0.20182758576264218
0.1368202473461996
0.12779145034391592
0.18557575115853153
0.1801584729571613
0.05917259312655988
0.019445886316511656
0.07542442773067053
0.0501437961242762
-0.06181328670404154
-0.08889967771089262
-0.007640504690339413
-0.01847506109307984
-0.1322379033218543
-0.1448782191250515
-0.050978730301301116
-0.06000752730358481
-0.1322379033218543
-0.1466839785255082
-0.049172970900844375
-0.049172970900844375
-0.15751853492824863
-0.13765518152322453
-0.045561452099930906
-0.05639600850267133
-0.15571277552779192
-0.15390701612733518
-0.07987088070860893
-0.07445360250723872
-0.1466839785255082
-0.1322379033218543
-0.045561452099930906
-0.045561452099930906
-0.12682062512048412
-0.1322379033218543
-0.045561452099930906
-0.05639600850267133
-0.13765518152322453
-0.11959758751865715
-0.022086579893993315
-0.022086579893993315
-0.10334575291454651
-0.1123745499168302
-0.011252023491252887
-0.016669301692623102
-0.10334575291454651
-0.10515151231500326
-0.020280820493536574
-0.031115376896277
-0.11959758751865715
-0.12320910631957063
-0.016669301692623102
-0.016669301692623102
-0.10515151231500326
-0.10876303111591672
-0.03653265509764722
-0.03472689569719048
-0.11779182811820041
-0.08528815890997914
0.008611329913771228
-0.004028985889425937
-0.08889967771089262
-0.08889967771089262
0.012222848714684703
0.012222848714684703
-0.06542480550495502
-0.0690363243058685
0.023057405117425128
0.008611329913771228
-0.09070543711134935
-0.07806512130815219
0.017640126916054915
0.017640126916054915
-0.04736721150038765
-0.05459024910221459
0.021251645716968394
0.008611329913771228
-0.07264784310678198
-0.06723056490541175
0.017640126916054915
0.008611329913771228
-0.08709391831043586
-0.0690363243058685
0.03750348032107903
0.02486316451788187
-0.06000752730358481
-0.04736721150038765
0.046532277323362715
0.033891961520165555
-0.06361904610449828
-0.043755692699474165
0.041114999121992506
0.04292075852244925
-0.06000752730358481
-0.043755692699474165
0.03569772092062229
0.026668923918338604
-0.04194993329901743
-0.031115376896277
0.0501437961242762
0.02486316451788187
-0.045561452099930906
0.0031940517124010143
0.08445322473295422
0.07181290892975704
-0.0022232264889691994
0.012222848714684703
0.1079280969388918
0.08987050293432443
0.026668923918338604
0.041114999121992506
0.12959720974437267
0.09709354053615138
0.0049998111128577525
0.010417089314227966
0.06458987132793009
0.046532277323362715
-0.045561452099930906
-0.04194993329901743
0.046532277323362715
0.017640126916054915
-0.0690363243058685
-0.06181328670404154
0.033891961520165555
0.01583436751559818
-0.08348239950952241
-0.06000752730358481
0.03569772092062229
0.030280442719252083
-0.050978730301301116
-0.022086579893993315
0.14043176614711309
0.28489251818365213
0.4401878266229316
0.6731307892818508
0.8555124887279812
0.7236920524946394
0.3643459318037486
0.08806474353386769
-0.011252023491252887
-0.1123745499168302
-0.19002220413646992
-0.1322379033218543
-0.032921136296733745
-0.06361904610449828
-0.14848973792596495
-0.10334575291454651
-0.016669301692623102
-0.050978730301301116
-0.15571277552779192
-0.12501486572002737
-0.04014417389856069
-0.03472689569719048
-0.10334575291454651
-0.09070543711134935
-0.01847506109307984
-0.03833841449810395
-0.12862638452094083
-0.08889967771089262
-0.004028985889425937
-0.03653265509764722
-0.11779182811820041
-0.10153999351408978
-0.032921136296733745
-0.04194993329901743
-0.10334575291454651
-0.07445360250723872
0.012222848714684703
0.017640126916054915
-0.045561452099930906
-0.032921136296733745
0.06639563072838683
0.07000714952930032
0.006805570513314489
0.05375531492518967
0.14765480374894005
0.12779145034391592
0.05194955552473293
0.08987050293432443
0.19099302935990176
0.15848936015168047
0.08987050293432443
0.12959720974437267
0.1946045481608152
0.14043176614711309
0.010417089314227966
0.017640126916054915
0.08987050293432443
0.019445886316511656
-0.08167664010906565
-0.07625936190769544
-0.029309617495820266
-0.07806512130815219
-0.15210125672687844
-0.1322379033218543
-0.06542480550495502
-0.0979284747131763
-0.17015885073144582
-0.12862638452094083
-0.04736721150038765
-0.08889967771089262
-0.16654733193053234
-0.12862638452094083
-0.07445360250723872
-0.10153999351408978
-0.17738188833327279
-0.13765518152322453
-0.04736721150038765
-0.09070543711134935
-0.16113005372916214
-0.1322379033218543
-0.058201767903128074
-0.08348239950952241
-0.15210125672687844
-0.10695727171545999
-0.025698098694906787
-0.06000752730358481
-0.14848973792596495
-0.09612271531271956
-0.004028985889425937
-0.03833841449810395
-0.10334575291454651
-0.029309617495820266
0.017640126916054915
-0.049172970900844375
-0.1123745499168302
-0.0690363243058685
0.0049998111128577525
-0.02750385809536353
-0.10876303111591672
-0.08528815890997914
-0.016669301692623102
-0.045561452099930906
-0.11779182811820041
-0.07625936190769544
0.010417089314227966
-0.043755692699474165
-0.12320910631957063
-0.09431695591226283
-0.011252023491252887
-0.049172970900844375
-0.1322379033218543
-0.0979284747131763
-0.01847506109307984
-0.03653265509764722
-0.1123745499168302
-0.06000752730358481
0.01583436751559818
-0.016669301692623102
-0.0979284747131763
-0.07625936190769544
-0.005834745289882675
-0.043755692699474165
-0.10876303111591672
-0.07625936190769544
0.0049998111128577525
-0.01847506109307984
-0.10153999351408978
-0.07264784310678198
0.006805570513314489
-0.043755692699474165
-0.08528815890997914
-0.032921136296733745
0.05556107432564641
0.014028608115141441
-0.03653265509764722
0.0049998111128577525
0.09709354053615138
0.023057405117425128
-0.025698098694906787
-0.013057782891709627
0.11153961573980528
0.06639563072838683
-0.022086579893993315
-0.0004174670885124613
0.07361866833021379
0.041114999121992506
-0.09431695591226283
-0.06000752730358481
-0.013057782891709627
-0.05639600850267133
-0.10334575291454651
-0.049172970900844375
0.021251645716968394
-0.022086579893993315
-0.1358494221227678
-0.0690363243058685
-0.025698098694906787
-0.013057782891709627
-0.11056879051637347
-0.06361904610449828
0.02486316451788187
0.0049998111128577525
-0.020280820493536574
0.20724486396401237
0.5322815560462252
0.671325029881394
0.65687895467774
0.6532674358768267
0.5033894056389173
0.14404328494802654
-0.11779182811820041
-0.16113005372916214
-0.10153999351408978
-0.12501486572002737
-0.17015885073144582
-0.12320910631957063
-0.045561452099930906
-0.07264784310678198
-0.1322379033218543
-0.09431695591226283
-0.03472689569719048
-0.06000752730358481
-0.12862638452094083
-0.08889967771089262
-0.014863542292166363
-0.07445360250723872
-0.13765518152322453
-0.058201767903128074
0.010417089314227966
-0.045561452099930906
-0.08889967771089262
-0.06542480550495502
-0.022086579893993315
-0.06000752730358481
-0.0979284747131763
-0.04194993329901743
0.012222848714684703
0.0013882923119442766
-0.07806512130815219
-0.04194993329901743
0.04292075852244925
0.006805570513314489
-0.050978730301301116
0.041114999121992506
0.14043176614711309
0.11153961573980528
0.05194955552473293
0.09889929993660812
0.1837699917580748
0.13320872854528612
0.05556107432564641
0.10431657813797833
0.20002182636218543
0.14223752554756983
0.05375531492518967
0.08264746533249746
0.14043176614711309
0.06820139012884358
-0.016669301692623102
0.0031940517124010143
0.05194955552473293
0.0031940517124010143
-0.09251119651180609
-0.07084208370632523
-0.007640504690339413
-0.05459024910221459
-0.141266700324138
-0.10515151231500326
-0.043755692699474165
-0.06542480550495502
-0.15210125672687844
-0.10876303111591672
-0.025698098694906787
-0.07445360250723872
-0.14848973792596495
-0.12320910631957063
-0.04736721150038765
-0.07806512130815219
-0.1448782191250515
-0.09070543711134935
-0.025698098694906787
-0.07625936190769544
-0.1502954973264217
-0.09612271531271956
-0.016669301692623102
-0.045561452099930906
-0.10515151231500326
-0.05459024910221459
0.030280442719252083
-0.025698098694906787
-0.1123745499168302
-0.07806512130815219
0.008611329913771228
-0.02750385809536353
-0.09431695591226283
-0.06542480550495502
-0.007640504690339413
-0.045561452099930906
-0.10334575291454651
-0.04736721150038765
0.02847468331879534
-0.004028985889425937
-0.058201767903128074
-0.016669301692623102
0.03750348032107903
0.012222848714684703
-0.058201767903128074
-0.016669301692623102
0.05556107432564641
0.012222848714684703
-0.043755692699474165
0.0013882923119442766
0.06458987132793009
0.017640126916054915
-0.020280820493536574
0.03208620211970882
0.08625898413341095
0.05375531492518967
0.023057405117425128
0.05556107432564641
0.15307208195031025
0.1079280969388918
0.03569772092062229
0.0934820217352379
0.14043176614711309
0.0501437961242762
-0.014863542292166363
0.02486316451788187
0.08445322473295422
0.014028608115141441
-0.06000752730358481
-0.016669301692623102
0.03208620211970882
-0.02750385809536353
-0.07987088070860893
-0.032921136296733745
0.041114999121992506
-0.013057782891709627
-0.08348239950952241
-0.04194993329901743
0.030280442719252083
-0.01847506109307984
-0.07445360250723872
-0.004028985889425937
0.08445322473295422
0.12779145034391592
0.27225220238045494
0.5376988342475955
0.7868936315106252
0.7742533157074281
0.5738140222567302
0.3571228942019216
0.14765480374894005
-0.07987088070860893
-0.1882164447360132
-0.1322379033218543
-0.03653265509764722
-0.0690363243058685
-0.10695727171545999
-0.045561452099930906
0.021251645716968394
-0.03833841449810395
-0.10876303111591672
-0.04194993329901743
0.021251645716968394
-0.03653265509764722
-0.11598606871774368
-0.06000752730358481
-0.004028985889425937
-0.050978730301301116
-0.10876303111591672
-0.043755692699474165
0.05556107432564641
-0.004028985889425937
-0.09070543711134935
-0.045561452099930906
0.03208620211970882
-0.0022232264889691994
-0.045561452099930906
0.02486316451788187
0.08625898413341095
0.0501437961242762
-0.00944626409079615
0.06820139012884358
0.10070505933706486
0.07000714952930032
0.046532277323362715
0.12237417214254571
0.18738151055898827
0.12598569094345918
0.07542442773067053
0.15848936015168047
0.21446790156583934
0.17293543535533437
0.12598569094345918
0.15848936015168047
0.189187269959445
0.09889929993660812
0.041114999121992506
0.08625898413341095
0.12417993154300244
0.05375531492518967
-0.045561452099930906
-0.01847506109307984
0.02847468331879534
-0.05278448970175786
-0.10695727171545999
-0.06181328670404154
-0.04194993329901743
-0.08889967771089262
-0.14307245972459476
-0.10334575291454651
-0.050978730301301116
-0.12862638452094083
-0.1882164447360132
-0.07987088070860893
-0.025698098694906787
-0.0979284747131763
-0.16654733193053234
-0.09070543711134935
-0.03653265509764722
-0.10334575291454651
-0.16113005372916214
-0.07806512130815219
-0.02750385809536353
-0.10695727171545999
-0.15210125672687844
-0.05278448970175786
-0.005834745289882675
-0.10334575291454651
-0.1502954973264217
-0.07264784310678198
0.0031940517124010143
-0.06542480550495502
-0.11779182811820041
-0.04736721150038765
0.0031940517124010143
-0.07445360250723872
-0.11418030931728694
-0.005834745289882675
0.03930923972153577
-0.045561452099930906
-0.13043214392139757
-0.06181328670404154
0.012222848714684703
-0.045561452099930906
-0.11959758751865715
-0.03833841449810395
0.023057405117425128
-0.045561452099930906
-0.10334575291454651
-0.032921136296733745
0.010417089314227966
-0.07084208370632523
-0.09973423411363304
-0.01847506109307984
0.041114999121992506
0.0013882923119442766
-0.049172970900844375
0.021251645716968394
0.08445322473295422
0.012222848714684703
-0.03653265509764722
0.026668923918338604
0.09709354053615138
0.03569772092062229
-0.045561452099930906
0.02847468331879534
0.07542442773067053
-0.022086579893993315
-0.10153999351408978
-0.045561452099930906
-0.005834745289882675
-0.07084208370632523
-0.10334575291454651
-0.031115376896277
-0.004028985889425937
-0.08348239950952241
-0.11056879051637347
-0.032921136296733745
0.02486316451788187
-0.02750385809536353
-0.09070543711134935
-0.04194993329901743
0.010417089314227966
-0.022086579893993315
0.030280442719252083
0.2758637211813684
0.5322815560462252
0.671325029881394
0.6857711050850479
0.6695192704809373
0.4401878266229316
0.05556107432564641
-0.16113005372916214
-0.16293581312961886
-0.10334575291454651
-0.15390701612733518
-0.19002220413646992
-0.10515151231500326
-0.045561452099930906
-0.12682062512048412
-0.1647415725300756
-0.07264784310678198
-0.029309617495820266
-0.10515151231500326
-0.15571277552779192
-0.07806512130815219
-0.016669301692623102
-0.0979284747131763
-0.14848973792596495
-0.07445360250723872
-0.022086579893993315
-0.09070543711134935
-0.1448782191250515
-0.06181328670404154
0.0031940517124010143
-0.05459024910221459
-0.09612271531271956
-0.025698098694906787
0.03208620211970882
-0.032921136296733745
-0.0690363243058685
0.006805570513314489
0.06278411192747335
0.008611329913771228
0.0049998111128577525
0.07361866833021379
0.14043176614711309
0.05917259312655988
0.017640126916054915
0.12779145034391592
0.18557575115853153
0.08625898413341095
0.02486316451788187
0.10612233753843507
0.18557575115853153
0.11153961573980528
0.03930923972153577
0.07542442773067053
0.10431657813797833
-0.004028985889425937
-0.06000752730358481
-0.014863542292166363
-0.0022232264889691994
-0.07445360250723872
-0.12682062512048412
-0.0690363243058685
-0.022086579893993315
-0.10334575291454651
-0.15571277552779192
-0.10153999351408978
-0.029309617495820266
-0.08348239950952241
-0.12501486572002737
-0.049172970900844375
-0.00944626409079615
-0.08889967771089262
-0.1322379033218543
-0.06000752730358481
-0.005834745289882675
-0.0690363243058685
-0.13043214392139757
-0.05639600850267133
-0.016669301692623102
-0.07987088070860893
-0.1123745499168302
-0.045561452099930906
0.010417089314227966
-0.049172970900844375
-0.08709391831043586
-0.014863542292166363
0.02847468331879534
-0.07264784310678198
-0.11598606871774368
-0.029309617495820266
0.01583436751559818
-0.05639600850267133
-0.10334575291454651
-0.045561452099930906
0.02486316451788187
-0.045561452099930906
-0.09070543711134935
-0.016669301692623102
-0.007640504690339413
-0.06181328670404154
-0.06361904610449828
-0.004028985889425937
0.012222848714684703
-0.050978730301301116
-0.07806512130815219
-0.016669301692623102
-0.0004174670885124613
-0.06361904610449828
-0.10334575291454651
-0.004028985889425937
0.019445886316511656
-0.07264784310678198
-0.09070543711134935
-0.0004174670885124613
0.04292075852244925
-0.014863542292166363
-0.03653265509764722
0.04833803672381946
0.08625898413341095
0.012222848714684703
-0.03653265509764722
0.04292075852244925
0.09167626233478116
0.04472651792290599
-0.04014417389856069
0.02847468331879534
0.033891961520165555
-0.045561452099930906
-0.08528815890997914
-0.029309617495820266
0.0013882923119442766
-0.08528815890997914
-0.1123745499168302
-0.03472689569719048
-0.025698098694906787
-0.1123745499168302
-0.12682062512048412
-0.04736721150038765
-0.011252023491252887
-0.08709391831043586
-0.11959758751865715
-0.045561452099930906
-0.005834745289882675
-0.045561452099930906
0.046532277323362715
0.34989985660009465
0.595483135062211
0.6785480674832209
0.6911883832864182
0.6189580072681486
0.3192019467923301
-0.014863542292166363
-0.19002220413646992
-0.16293581312961886
-0.11779182811820041
-0.16113005372916214
-0.17557612893281602
-0.10334575291454651
-0.0690363243058685
-0.1448782191250515
-0.17015885073144582
-0.07445360250723872
-0.043755692699474165
-0.11959758751865715
-0.16113005372916214
-0.06361904610449828
-0.025698098694906787
-0.10334575291454651
-0.1322379033218543
-0.05459024910221459
-0.016669301692623102
-0.08709391831043586
-0.13765518152322453
-0.045561452099930906
0.0031940517124010143
-0.07084208370632523
-0.09431695591226283
-0.013057782891709627
0.006805570513314489
-0.058201767903128074
-0.06181328670404154
0.030280442719252083
0.08445322473295422
-0.0022232264889691994
-0.005834745289882675
0.08625898413341095
0.11876265334163223
0.060978352527016624
0.07181290892975704
0.16210087895259392
0.19099302935990176
0.14043176614711309
0.11153961573980528
0.20543910456355563
0.22530245796857978
0.13320872854528612
0.07903594653158401
0.15307208195031025
0.1693239165544209
0.0501437961242762
-0.004028985889425937
0.046532277323362715
0.05375531492518967
-0.04194993329901743
-0.08528815890997914
-0.014863542292166363
0.006805570513314489
-0.07084208370632523
-0.10515151231500326
-0.04014417389856069
-0.011252023491252887
-0.09070543711134935
-0.13043214392139757
-0.043755692699474165
-0.016669301692623102
-0.09973423411363304
-0.12320910631957063
-0.011252023491252887
0.006805570513314489
-0.08528815890997914
-0.1123745499168302
-0.032921136296733745
-0.022086579893993315
-0.10334575291454651
-0.1358494221227678
-0.049172970900844375
0.0013882923119442766
-0.07084208370632523
-0.11056879051637347
-0.029309617495820266
-0.004028985889425937
-0.09070543711134935
-0.1123745499168302
-0.016669301692623102
0.006805570513314489
-0.07445360250723872
-0.09070543711134935
0.0031940517124010143
0.03208620211970882
-0.058201767903128074
-0.09431695591226283
-0.004028985889425937
0.03930923972153577
-0.032921136296733745
-0.045561452099930906
0.01583436751559818
0.02486316451788187
-0.045561452099930906
-0.06181328670404154
0.02847468331879534
0.04472651792290599
-0.058201767903128074
-0.06542480550495502
0.030280442719252083
0.04472651792290599
-0.043755692699474165
-0.07987088070860893
0.021251645716968394
0.02486316451788187
-0.06723056490541175
-0.08348239950952241
0.0031940517124010143
0.02486316451788187
-0.045561452099930906
-0.07264784310678198
-0.013057782891709627
-0.0004174670885124613
-0.07264784310678198
-0.07264784310678198
0.023057405117425128
0.02847468331879534
-0.04736721150038765
-0.07445360250723872
0.02486316451788187
0.03750348032107903
-0.07084208370632523
-0.07806512130815219
0.021251645716968394
0.03930923972153577
-0.04194993329901743
-0.045561452099930906
0.06458987132793009
0.09709354053615138
-0.014863542292166363
-0.014863542292166363
0.08987050293432443
0.11153961573980528
0.01583436751559818
-0.011252023491252887
0.07181290892975704
0.08084170593204074
-0.03472689569719048
-0.049172970900844375
0.021251645716968394
0.014028608115141441
-0.05639600850267133
-0.08167664010906565
-0.0004174670885124613
0.012222848714684703
-0.06000752730358481
-0.06181328670404154
0.02847468331879534
0.03208620211970882
-0.07264784310678198
-0.1123745499168302
0.017640126916054915
-0.011252023491252887
-0.08528815890997914
-0.07264784310678198
0.15668360075122373
0.42574175141927767
0.5629794658539897
0.7905051503115387
0.8464836917256976
0.6604904734786535
0.23433125497086346
-0.0022232264889691994
-0.058201767903128074
-0.08167664010906565
-0.12862638452094083
-0.10876303111591672
-0.014863542292166363
-0.013057782891709627
-0.10876303111591672
-0.12140334691911389
-0.025698098694906787
-0.004028985889425937
-0.1123745499168302
-0.15751853492824863
-0.06000752730358481
-0.04014417389856069
-0.14848973792596495
-0.13765518152322453
-0.016669301692623102
-0.02750385809536353
-0.10334575291454651
-0.10515151231500326
0.06820139012884358
0.0013882923119442766
-0.07625936190769544
-0.07264784310678198
-0.005834745289882675
0.10070505933706486
-0.013057782891709627
-0.10515151231500326
0.03930923972153577
0.0501437961242762
-0.06542480550495502
-0.016669301692623102
0.0934820217352379
0.12959720974437267
0.04833803672381946
0.05736683372610314
0.1512663225498535
0.15668360075122373
0.07000714952930032
0.10251081873752159
0.18557575115853153
0.17654695415624785
0.09167626233478116
0.07542442773067053
0.14765480374894005
0.13862600674665634
0.03930923972153577
-0.004028985889425937
0.07000714952930032
0.05375531492518967
-0.07445360250723872
-0.1123745499168302
-0.050978730301301116
-0.05278448970175786
-0.141266700324138
-0.1448782191250515
-0.0690363243058685
-0.07445360250723872
-0.17015885073144582
-0.17196461013190256
-0.09251119651180609
-0.08709391831043586
-0.15390701612733518
-0.15571277552779192
-0.07445360250723872
-0.07084208370632523
-0.15390701612733518
-0.1502954973264217
-0.07625936190769544
-0.07445360250723872
-0.1502954973264217
-0.1647415725300756
-0.06542480550495502
-0.043755692699474165
-0.10876303111591672
-0.10695727171545999
-0.016669301692623102
-0.020280820493536574
-0.14848973792596495
-0.12862638452094083
-0.025698098694906787
-0.005834745289882675
-0.12140334691911389
-0.10695727171545999
-0.013057782891709627
0.006805570513314489
-0.08709391831043586
-0.10334575291454651
-0.014863542292166363
0.008611329913771228
-0.07445360250723872
-0.06181328670404154
0.023057405117425128
0.006805570513314489
-0.0690363243058685
-0.06542480550495502
0.030280442719252083
0.03208620211970882
-0.058201767903128074
-0.07806512130815219
0.017640126916054915
0.023057405117425128
-0.04736721150038765
-0.04736721150038765
0.023057405117425128
0.006805570513314489
-0.08889967771089262
-0.08348239950952241
0.021251645716968394
0.026668923918338604
-0.058201767903128074
-0.045561452099930906
0.03569772092062229
0.02847468331879534
-0.049172970900844375
-0.07806512130815219
0.014028608115141441
0.03208620211970882
-0.045561452099930906
-0.05278448970175786
0.02486316451788187
0.010417089314227966
-0.09070543711134935
-0.07625936190769544
0.03208620211970882
0.041114999121992506
-0.06181328670404154
-0.03653265509764722
0.05194955552473293
0.03208620211970882
-0.058201767903128074
-0.06000752730358481
0.023057405117425128
0.02847468331879534
-0.050978730301301116
-0.043755692699474165
0.041114999121992506
0.04472651792290599
-0.04736721150038765
-0.03653265509764722
0.06458987132793009
0.08445322473295422
0.010417089314227966
-0.004028985889425937
0.07903594653158401
0.06278411192747335
-0.031115376896277
-0.04014417389856069
0.041114999121992506
0.0031940517124010143
-0.08889967771089262
-0.07625936190769544
0.0013882923119442766
-0.011252023491252887
-0.08889967771089262
-0.07445360250723872
0.008611329913771228
-0.0004174670885124613
-0.10153999351408978
-0.09251119651180609
-0.011252023491252887
-0.004028985889425937
-0.09251119651180609
-0.08889967771089262
0.02486316451788187
0.0934820217352379
0.22349669856812301
0.4871375710348067
0.7977281879133656
0.8320376165220437
0.622569526069062
0.34267681899826774
0.14404328494802654
-0.050978730301301116
-0.20085676053921034
-0.1647415725300756
-0.049172970900844375
-0.03653265509764722
-0.12140334691911389
-0.11959758751865715
-0.029309617495820266
-0.04014417389856069
-0.10334575291454651
-0.08889967771089262
-0.011252023491252887
-0.03472689569719048
-0.10876303111591672
-0.09251119651180609
-0.0022232264889691994
-0.004028985889425937
-0.10334575291454651
-0.08889967771089262
-0.011252023491252887
-0.014863542292166363
-0.08348239950952241
-0.06000752730358481
0.0049998111128577525
-0.0022232264889691994
-0.07987088070860893
-0.045561452099930906
0.05736683372610314
0.03569772092062229
-0.050978730301301116
-0.016669301692623102
0.08806474353386769
0.08445322473295422
0.0031940517124010143
0.04833803672381946
0.15848936015168047
0.15487784135076696
0.07000714952930032
0.10431657813797833
0.20363334516309892
0.18557575115853153
0.09528778113569464
0.12237417214254571
0.18557575115853153
0.18196423235761808
0.08084170593204074
0.06278411192747335
0.12237417214254571
0.06639563072838683
-0.04736721150038765
-0.06181328670404154
-0.004028985889425937
-0.022086579893993315
-0.11598606871774368
-0.10695727171545999
-0.045561452099930906
-0.07625936190769544
-0.16113005372916214
-0.17196461013190256
-0.09070543711134935
-0.11598606871774368
-0.20266251993966708
-0.1791876477337295
-0.10334575291454651
-0.10515151231500326
-0.18099340713418624
-0.1882164447360132
-0.09070543711134935
-0.08709391831043586
-0.18641068533555646
-0.16293581312961886
-0.09251119651180609
-0.11598606871774368
-0.18641068533555646
-0.15210125672687844
-0.06000752730358481
-0.06000752730358481
-0.15210125672687844
-0.13043214392139757
-0.050978730301301116
-0.05459024910221459
-0.12320910631957063
-0.12320910631957063
-0.03833841449810395
-0.045561452099930906
-0.12320910631957063
-0.10515151231500326
-0.02750385809536353
-0.016669301692623102
-0.09251119651180609
-0.08709391831043586
-0.004028985889425937
-0.016669301692623102
-0.10515151231500326
-0.09431695591226283
-0.01847506109307984
-0.022086579893993315
-0.10334575291454651
-0.0979284747131763
-0.014863542292166363
-0.025698098694906787
-0.10334575291454651
-0.07987088070860893
-0.0004174670885124613
-0.016669301692623102
-0.08889967771089262
-0.058201767903128074
0.03208620211970882
-0.0004174670885124613
-0.09251119651180609
-0.07084208370632523
0.017640126916054915
-0.0004174670885124613
-0.07445360250723872
-0.03472689569719048
0.03208620211970882
0.012222848714684703
-0.06723056490541175
-0.03472689569719048
0.03208620211970882
0.012222848714684703
-0.06181328670404154
-0.03653265509764722
0.05556107432564641
0.04292075852244925
-0.045561452099930906
-0.01847506109307984
0.046532277323362715
0.023057405117425128
-0.032921136296733745
-0.007640504690339413
0.07903594653158401
0.03208620211970882
-0.06000752730358481
-0.022086579893993315
0.07181290892975704
0.046532277323362715
-0.031115376896277
-0.014863542292166363
0.07000714952930032
0.05556107432564641
-0.007640504690339413
0.014028608115141441
0.08625898413341095
0.07542442773067053
0.010417089314227966
0.046532277323362715
0.13501448794574286
0.09889929993660812
0.006805570513314489
0.03930923972153577
0.09528778113569464
0.046532277323362715
-0.04014417389856069
-0.004028985889425937
0.07000714952930032
0.03208620211970882
-0.049172970900844375
-0.029309617495820266
0.0501437961242762
0.02486316451788187
-0.05459024910221459
-0.02750385809536353
0.04833803672381946
0.019445886316511656
-0.058201767903128074
-0.020280820493536574
0.05375531492518967
0.05375531492518967
0.10251081873752159
0.37156896940557554
0.7182747742932692
0.837454894723414
0.7002171802887018
0.5160297214421146
0.27766948058182517
-0.007640504690339413
-0.19002220413646992
-0.17015885073144582
-0.04736721150038765
-0.050978730301301116
-0.1123745499168302
-0.07987088070860893
-0.01847506109307984
-0.029309617495820266
-0.1123745499168302
-0.07987088070860893
-0.011252023491252887
-0.032921136296733745
-0.10334575291454651
-0.05639600850267133
0.02847468331879534
-0.022086579893993315
-0.09251119651180609
-0.045561452099930906
0.03750348032107903
0.0013882923119442766
-0.08528815890997914
-0.058201767903128074
0.023057405117425128
0.02847468331879534
-0.050978730301301116
-0.005834745289882675
0.08264746533249746
0.05556107432564641
-0.032921136296733745
0.010417089314227966
0.09889929993660812
0.08987050293432443
0.006805570513314489
0.07000714952930032
0.18196423235761808
0.15668360075122373
0.08084170593204074
0.1368202473461996
0.21988517976720956
0.1982160669617287
0.12417993154300244
0.1512663225498535
0.21807942036675282
0.1946045481608152
0.09889929993660812
0.12237417214254571
0.16571239775350743
0.0934820217352379
-0.014863542292166363
-0.007640504690339413
0.03750348032107903
-0.01847506109307984
-0.141266700324138
-0.10515151231500326
-0.023892339294450053
-0.0690363243058685
-0.14848973792596495
-0.09973423411363304
-0.01847506109307984
-0.08348239950952241
-0.15210125672687844
-0.10515151231500326
-0.029309617495820266
-0.07084208370632523
-0.16113005372916214
-0.11418030931728694
-0.058201767903128074
-0.07445360250723872
-0.13765518152322453
-0.08709391831043586
-0.03653265509764722
-0.07264784310678198
-0.1322379033218543
-0.06181328670404154
-0.007640504690339413
-0.0690363243058685
-0.1502954973264217
-0.09070543711134935
-0.020280820493536574
-0.06361904610449828
-0.1322379033218543
-0.08528815890997914
-0.004028985889425937
-0.04014417389856069
-0.13765518152322453
-0.10334575291454651
-0.04014417389856069
-0.045561452099930906
-0.10334575291454651
-0.08167664010906565
-0.020280820493536574
-0.06361904610449828
-0.141266700324138
-0.0979284747131763
-0.013057782891709627
-0.050978730301301116
-0.1448782191250515
-0.08528815890997914
0.0031940517124010143
-0.05639600850267133
-0.13404366272231105
-0.08348239950952241
-0.0004174670885124613
-0.025698098694906787
-0.09973423411363304
-0.045561452099930906
0.02847468331879534
-0.013057782891709627
-0.08348239950952241
-0.045561452099930906
0.03208620211970882
-0.0022232264889691994
-0.07264784310678198
-0.045561452099930906
0.05194955552473293
0.02486316451788187
-0.049172970900844375
-0.022086579893993315
0.03208620211970882
0.012222848714684703
-0.05639600850267133
-0.016669301692623102
0.05917259312655988
0.012222848714684703
-0.05459024910221459
-0.014863542292166363
0.041114999121992506
0.012222848714684703
-0.04194993329901743
0.010417089314227966
0.07181290892975704
0.03930923972153577
-0.020280820493536574
0.02486316451788187
0.09889929993660812
0.07542442773067053
0.006805570513314489
0.06458987132793009
0.15668360075122373
0.11153961573980528
0.012222848714684703
0.02847468331879534
0.07000714952930032
-0.0004174670885124613
-0.04736721150038765
-0.013057782891709627
0.03750348032107903
-0.025698098694906787
-0.08528815890997914
-0.04736721150038765
0.012222848714684703
-0.01847506109307984
-0.07084208370632523
-0.016669301692623102
0.05375531492518967
-0.016669301692623102
-0.08348239950952241
-0.01847506109307984
0.0501437961242762
0.019445886316511656
0.041114999121992506
0.3119789091905032
0.6171522478676918
0.7507784435014905
0.6966056614877884
0.5990946538631245
0.38782080400968616
0.07000714952930032
-0.13946094092368128
-0.1322379033218543
-0.04736721150038765
-0.07445360250723872
-0.15571277552779192
-0.10334575291454651
0.0013882923119442766
-0.022086579893993315
-0.09070543711134935
-0.04194993329901743
0.030280442719252083
-0.045561452099930906
-0.12862638452094083
-0.08167664010906565
0.012222848714684703
-0.016669301692623102
-0.08348239950952241
-0.031115376896277
0.02486316451788187
-0.00944626409079615
-0.06181328670404154
-0.022086579893993315
0.0049998111128577525
-0.025698098694906787
-0.04736721150038765
-0.004028985889425937
0.05736683372610314
-0.0004174670885124613
-0.05639600850267133
0.008611329913771228
0.08987050293432443
0.05375531492518967
0.010417089314227966
0.05736683372610314
0.1314029691448294
0.08445322473295422
0.041114999121992506
0.11153961573980528
0.1801584729571613
0.12959720974437267
0.060978352527016624
0.12417993154300244
0.1747411947557911
0.12779145034391592
0.05736683372610314
0.09528778113569464
0.13862600674665634
0.06820139012884358
-0.014863542292166363
0.006805570513314489
0.046532277323362715
-0.032921136296733745
-0.10334575291454651
-0.06361904610449828
-0.014863542292166363
-0.06542480550495502
-0.12862638452094083
-0.0690363243058685
-0.01847506109307984
-0.08167664010906565
-0.1322379033218543
-0.08889967771089262
-0.025698098694906787
-0.07625936190769544
-0.14307245972459476
-0.08889967771089262
-0.022086579893993315
-0.07806512130815219
-0.13043214392139757
-0.05459024910221459
0.019445886316511656
-0.045561452099930906
-0.10876303111591672
-0.045561452099930906
0.0031940517124010143
-0.04014417389856069
-0.0979284747131763
-0.04736721150038765
0.023057405117425128
-0.03653265509764722
-0.1123745499168302
-0.049172970900844375
0.03750348032107903
-0.016669301692623102
-0.08889967771089262
-0.050978730301301116
0.026668923918338604
-0.032921136296733745
-0.0979284747131763
-0.016669301692623102
0.03208620211970882
0.012222848714684703
-0.07625936190769544
-0.03653265509764722
0.014028608115141441
-0.005834745289882675
-0.09431695591226283
-0.03472689569719048
0.026668923918338604
-0.007640504690339413
-0.05459024910221459
0.0031940517124010143
0.06820139012884358
-0.0022232264889691994
-0.06181328670404154
-0.007640504690339413
0.07181290892975704
0.03750348032107903
-0.025698098694906787
0.04292075852244925
0.15487784135076696
0.06820139012884358
0.012222848714684703
0.060978352527016624
0.07181290892975704
0.05917259312655988
-0.04014417389856069
0.010417089314227966
0.060978352527016624
-0.004028985889425937
-0.045561452099930906
-0.043755692699474165
0.08987050293432443
-0.043755692699474165
-0.10334575291454651
-0.023892339294450053
-0.014863542292166363
-0.016669301692623102
-0.08709391831043586
-0.023892339294450053
0.026668923918338604
-0.04736721150038765
-0.11598606871774368
-0.01847506109307984
0.17112967595487763
0.34989985660009465
0.519641240243028
0.7345266088973799
0.8031454661147358
0.5521449094512493
0.1946045481608152
0.05375531492518967
-0.023892339294450053
-0.1502954973264217
-0.18641068533555646
-0.09070543711134935
-0.014863542292166363
-0.07445360250723872
-0.12320910631957063
-0.06361904610449828
-0.02750385809536353
-0.07264784310678198
-0.11418030931728694
-0.06542480550495502
-0.022086579893993315
-0.08348239950952241
-0.13404366272231105
-0.06542480550495502
0.0013882923119442766
-0.045561452099930906
-0.10515151231500326
-0.045561452099930906
0.021251645716968394
-0.043755692699474165
-0.09431695591226283
-0.025698098694906787
0.026668923918338604
-0.04014417389856069
-0.0979284747131763
-0.014863542292166363
0.0501437961242762
0.02486316451788187
-0.016669301692623102
0.03208620211970882
0.10251081873752159
0.07542442773067053
0.041114999121992506
0.09167626233478116
0.1693239165544209
0.1314029691448294
0.07181290892975704
0.1512663225498535
0.21627366096629605
0.15848936015168047
0.08264746533249746
0.1314029691448294
0.19099302935990176
0.12598569094345918
0.02486316451788187
0.03569772092062229
0.07181290892975704
0.010417089314227966
-0.05639600850267133
-0.007640504690339413
0.030280442719252083
-0.06181328670404154
-0.13765518152322453
-0.08889967771089262
-0.014863542292166363
-0.07445360250723872
-0.1502954973264217
-0.08167664010906565
-0.016669301692623102
-0.0690363243058685
-0.09612271531271956
-0.03472689569719048
-0.004028985889425937
-0.06181328670404154
-0.10695727171545999
-0.043755692699474165
0.0013882923119442766
-0.08709391831043586
-0.13765518152322453
-0.05459024910221459
-0.0022232264889691994
-0.07264784310678198
-0.12682062512048412
-0.06000752730358481
-0.0022232264889691994
-0.058201767903128074
-0.10334575291454651
-0.043755692699474165
-0.016669301692623102
-0.07445360250723872
-0.10876303111591672
-0.016669301692623102
0.04292075852244925
-0.005834745289882675
-0.07445360250723872
-0.013057782891709627
0.026668923918338604
-0.04194993329901743
-0.09431695591226283
0.012222848714684703
0.03208620211970882
-0.043755692699474165
-0.07264784310678198
0.05556107432564641
0.0501437961242762
0.006805570513314489
-0.01847506109307984
0.04472651792290599
0.09889929993660812
0.012222848714684703
-0.06181328670404154
-0.016669301692623102
0.0031940517124010143
-0.10153999351408978
-0.14848973792596495
-0.06542480550495502
-0.025698098694906787
-0.11779182811820041
-0.17557612893281602
-0.10153999351408978
-0.06000752730358481
-0.13765518152322453
-0.19002220413646992
-0.11598606871774368
-0.058201767903128074
-0.09431695591226283
-0.1448782191250515
-0.08889967771089262
-0.049172970900844375
-0.10876303111591672
-0.07625936190769544
0.1693239165544209
0.46185693942841244
0.5990946538631245
0.6460443982749997
0.65687895467774
0.46185693942841244
0.09709354053615138
-0.16113005372916214
-0.2080797981410373
-0.16113005372916214
-0.21710859514332098
-0.2279431515460614
-0.12682062512048412
-0.07264784310678198
-0.1466839785255082
-0.20446827934012385
-0.11779182811820041
-0.06000752730358481
-0.1502954973264217
-0.20446827934012385
-0.11959758751865715
-0.07445360250723872
-0.11779182811820041
-0.16113005372916214
-0.1123745499168302
-0.06000752730358481
-0.11779182811820041
-0.16654733193053234
-0.10334575291454651
-0.02750385809536353
-0.09431695591226283
-0.141266700324138
-0.06000752730358481
0.008611329913771228
-0.06181328670404154
-0.09070543711134935
-0.0004174670885124613
0.05736683372610314
-0.007640504690339413
-0.032921136296733745
0.04833803672381946
0.10251081873752159
0.05194955552473293
0.021251645716968394
0.10070505933706486
0.16571239775350743
0.05375531492518967
0.04292075852244925
0.14584904434848328
0.1837699917580748
0.08987050293432443
0.030280442719252083
0.12598569094345918
0.14043176614711309
0.041114999121992506
-0.03653265509764722
0.010417089314227966
0.023057405117425128
-0.06181328670404154
-0.12140334691911389
-0.07625936190769544
-0.043755692699474165
-0.11959758751865715
-0.16113005372916214
-0.10153999351408978
-0.06361904610449828
-0.141266700324138
-0.19182796353692666
-0.12320910631957063
-0.06542480550495502
-0.13765518152322453
-0.16835309133098905
-0.08709391831043586
-0.06361904610449828
-0.11959758751865715
-0.141266700324138
-0.07625936190769544
-0.049172970900844375
-0.11779182811820041
-0.1448782191250515
-0.058201767903128074
-0.03472689569719048
-0.1123745499168302
-0.13404366272231105
-0.06000752730358481
-0.00944626409079615
-0.08889967771089262
-0.14307245972459476
-0.050978730301301116
0.03750348032107903
-0.03833841449810395
-0.09070543711134935
-0.01847506109307984
0.03930923972153577
-0.06181328670404154
-0.1123745499168302
-0.020280820493536574
0.012222848714684703
-0.050978730301301116
-0.08348239950952241
-0.016669301692623102
0.041114999121992506
-0.04014417389856069
-0.06000752730358481
0.02486316451788187
0.05556107432564641
-0.0022232264889691994
-0.04014417389856069
0.05556107432564641
0.12959720974437267
0.023057405117425128
-0.013057782891709627
0.05556107432564641
0.07361866833021379
-0.0022232264889691994
-0.04014417389856069
0.012222848714684703
0.017640126916054915
-0.07806512130815219
-0.12320910631957063
-0.032921136296733745
0.0013882923119442766
-0.08528815890997914
-0.10876303111591672
-0.058201767903128074
-0.014863542292166363
-0.08348239950952241
-0.11418030931728694
-0.025698098694906787
-0.0004174670885124613
-0.06542480550495502
-0.1123745499168302
-0.031115376896277
0.03750348032107903
0.07361866833021379
0.26322340537817124
0.5738140222567302
0.7905051503115387
0.7507784435014905
0.5467276312498791
0.30114435278776275
0.07000714952930032
-0.1448782191250515
-0.2279431515460614
-0.13043214392139757
-0.058201767903128074
-0.11598606871774368
-0.14848973792596495
-0.06000752730358481
-0.029309617495820266
-0.11779182811820041
-0.15210125672687844
-0.06723056490541175
-0.011252023491252887
-0.08709391831043586
-0.12140334691911389
-0.02750385809536353
0.0013882923119442766
-0.0979284747131763
-0.12501486572002737
-0.04014417389856069
-0.014863542292166363
-0.09431695591226283
-0.11056879051637347
-0.025698098694906787
0.02486316451788187
-0.029309617495820266
-0.06723056490541175
0.023057405117425128
0.0501437961242762
-0.032921136296733745
-0.04014417389856069
0.07000714952930032
0.10973385633934855
0.03750348032107903
0.023057405117425128
0.10431657813797833
0.15668360075122373
0.09889929993660812
0.09709354053615138
0.1837699917580748
0.21627366096629605
0.14765480374894005
0.10612233753843507
0.16210087895259392
0.17293543535533437
0.09528778113569464
0.0501437961242762
0.11153961573980528
0.12959720974437267
0.012222848714684703
-0.050978730301301116
-0.004028985889425937
0.010417089314227966
-0.07084208370632523
-0.12320910631957063
-0.06000752730358481
-0.022086579893993315
-0.10695727171545999
-0.1322379033218543
-0.050978730301301116
-0.00944626409079615
-0.10515151231500326
-0.141266700324138
-0.05639600850267133
-0.016669301692623102
-0.08709391831043586
-0.11779182811820041
-0.005834745289882675
0.010417089314227966
-0.07264784310678198
-0.10153999351408978
-0.022086579893993315
0.01583436751559818
-0.032921136296733745
-0.08709391831043586
-0.004028985889425937
0.03750348032107903
-0.045561452099930906
-0.07084208370632523
0.02847468331879534
0.0501437961242762
0.0031940517124010143
-0.02750385809536353
0.0501437961242762
0.08987050293432443
-0.0004174670885124613
-0.04736721150038765
0.017640126916054915
0.041114999121992506
-0.025698098694906787
-0.029309617495820266
0.04472651792290599
0.05556107432564641
-0.02750385809536353
-0.06181328670404154
0.023057405117425128
0.06820139012884358
-0.029309617495820266
-0.06181328670404154
0.03569772092062229
0.05375531492518967
-0.03653265509764722
-0.0690363243058685
0.02486316451788187
0.060978352527016624
-0.016669301692623102
-0.03472689569719048
0.021251645716968394
0.046532277323362715
-0.020280820493536574
-0.043755692699474165
0.03930923972153577
0.07542442773067053
-0.016669301692623102
-0.03472689569719048
0.06458987132793009
0.10251081873752159
0.030280442719252083
0.014028608115141441
0.11153961573980528
0.13862600674665634
0.08445322473295422
0.07542442773067053
0.15487784135076696
0.14946056314939676
0.05736683372610314
0.021251645716968394
0.07361866833021379
0.0934820217352379
-0.004028985889425937
-0.04014417389856069
0.03208620211970882
0.07181290892975704
-0.00944626409079615
-0.03653265509764722
0.03208620211970882
0.041114999121992506
-0.049172970900844375
-0.06181328670404154
0.02847468331879534
0.05917259312655988
-0.025698098694906787
-0.04736721150038765
0.02486316451788187
0.046532277323362715
-0.004028985889425937
0.10973385633934855
0.41671295441699396
0.6641019922795671
0.747166924700577
0.7435554058996635
0.6532674358768267
0.3535113754010082
0.006805570513314489
-0.15210125672687844
-0.10334575291454651
-0.06181328670404154
-0.11056879051637347
-0.09431695591226283
-0.01847506109307984
-0.016669301692623102
-0.08709391831043586
-0.09070543711134935
-0.007640504690339413
0.006805570513314489
-0.07987088070860893
-0.10334575291454651
-0.014863542292166363
0.017640126916054915
-0.07445360250723872
-0.09973423411363304
0.014028608115141441
0.03569772092062229
-0.045561452099930906
-0.07445360250723872
0.012222848714684703
0.03569772092062229
-0.04014417389856069
-0.04736721150038765
0.03930923972153577
0.06639563072838683
-0.025698098694906787
-0.058201767903128074
0.03208620211970882
0.060978352527016624
-0.0022232264889691994
0.012222848714684703
0.11153961573980528
0.1693239165544209
0.09167626233478116
0.07361866833021379
0.17654695415624785
0.20002182636218543
0.14043176614711309
0.12959720974437267
0.20363334516309892
0.21988517976720956
0.12598569094345918
0.08806474353386769
0.15307208195031025
0.15668360075122373
0.05917259312655988
0.012222848714684703
0.04833803672381946
0.046532277323362715
-0.043755692699474165
-0.08348239950952241
-0.020280820493536574
-0.016669301692623102
-0.10695727171545999
-0.10334575291454651
-0.01847506109307984
-0.014863542292166363
-0.11056879051637347
-0.12501486572002737
-0.025698098694906787
-0.004028985889425937
-0.10334575291454651
-0.12682062512048412
-0.031115376896277
0.01583436751559818
-0.06723056490541175
-0.0979284747131763
-0.004028985889425937
0.010417089314227966
-0.09251119651180609
-0.10515151231500326
-0.004028985889425937
0.012222848714684703
-0.06542480550495502
-0.06542480550495502
0.010417089314227966
-0.0004174670885124613
-0.08528815890997914
-0.08889967771089262
0.01583436751559818
0.03208620211970882
-0.06542480550495502
-0.07806512130815219
-0.005834745289882675
-0.031115376896277
-0.08889967771089262
-0.08889967771089262
0.012222848714684703
-0.0004174670885124613
-0.0979284747131763
-0.07987088070860893
0.006805570513314489
-0.005834745289882675
-0.0979284747131763
-0.08709391831043586
0.012222848714684703
0.012222848714684703
-0.0690363243058685
-0.08709391831043586
-0.01847506109307984
-0.016669301692623102
-0.07084208370632523
-0.09070543711134935
-0.016669301692623102
-0.004028985889425937
-0.1123745499168302
-0.11959758751865715
-0.020280820493536574
-0.016669301692623102
-0.08709391831043586
-0.10334575291454651
-0.016669301692623102
-0.0022232264889691994
-0.08348239950952241
-0.1123745499168302
-0.032921136296733745
-0.007640504690339413
-0.07445360250723872
-0.08709391831043586
0.0031940517124010143
0.017640126916054915
-0.07445360250723872
-0.07987088070860893
-0.01847506109307984
-0.016669301692623102
-0.08348239950952241
-0.07625936190769544
-0.0004174670885124613
0.0031940517124010143
-0.09431695591226283
-0.08889967771089262
-0.005834745289882675
-0.007640504690339413
-0.08889967771089262
-0.10153999351408978
-0.011252023491252887
-0.004028985889425937
-0.07806512130815219
-0.07625936190769544
0.006805570513314489
0.03930923972153577
-0.03833841449810395
-0.07084208370632523
0.02847468331879534
0.07000714952930032
-0.004028985889425937
-0.0022232264889691994
0.05736683372610314
0.041114999121992506
-0.06542480550495502
-0.06723056490541175
-0.029309617495820266
-0.06723056490541175
-0.08889967771089262
-0.11959758751865715
-0.045561452099930906
-0.04736721150038765
-0.10334575291454651
-0.13404366272231105
-0.020280820493536574
-0.03472689569719048
-0.11779182811820041
-0.1123745499168302
-0.01847506109307984
-0.05459024910221459
-0.11598606871774368
-0.09431695591226283
0.012222848714684703
0.07181290892975704
0.16571239775350743
0.5070009244398308
0.7363323682978365
0.8049512255151926
0.6207637666686053
0.34628833779918117
0.18557575115853153
-0.0022232264889691994
-0.24961226435154227
-0.18279916653464298
-0.06542480550495502
-0.03833841449810395
-0.10334575291454651
-0.11959758751865715
-0.032921136296733745
-0.016669301692623102
-0.11598606871774368
-0.10515151231500326
-0.016669301692623102
-0.01847506109307984
-0.08348239950952241
-0.08528815890997914
-0.014863542292166363
-0.022086579893993315
-0.0979284747131763
-0.0690363243058685
0.008611329913771228
0.0013882923119442766
-0.07445360250723872
-0.07264784310678198
0.021251645716968394
0.012222848714684703
-0.06361904610449828
-0.05459024910221459
0.03569772092062229
0.05194955552473293
-0.025698098694906787
0.0049998111128577525
0.10251081873752159
0.10431657813797833
0.04472651792290599
0.08445322473295422
0.18557575115853153
0.1927987887603585
0.11876265334163223
0.14404328494802654
0.23794277377177692
0.22891397676949324
0.14765480374894005
0.15307208195031025
0.24336005197314714
0.23433125497086346
0.12779145034391592
0.11695689394117549
0.16210087895259392
0.12779145034391592
0.02847468331879534
0.006805570513314489
0.06458987132793009
0.02847468331879534
-0.06542480550495502
-0.07445360250723872
-0.02750385809536353
-0.01847506109307984
-0.09070543711134935
-0.10695727171545999
-0.029309617495820266
-0.032921136296733745
-0.10515151231500326
-0.08709391831043586
-0.029309617495820266
-0.02750385809536353
-0.10334575291454651
-0.10334575291454651
-0.02750385809536353
-0.031115376896277
-0.10515151231500326
-0.10334575291454651
-0.020280820493536574
-0.025698098694906787
-0.10515151231500326
-0.07625936190769544
-0.007640504690339413
-0.013057782891709627
