-0.091341118
-0.02261962
0.026208812
-0.040704225
-0.105808801
-0.051554988
0.002698826
-0.038895765
-0.10219188
-0.040704225
0.022591891
-0.031661923
-0.10219188
-0.02261962
0.031634193
-0.033470383
-0.082298815
-0.037087304
0.042484956
-0.028045002
-0.082298815
-0.02261962
0.009932668
-0.049746527
-0.082298815
-0.006343476
0.024400351
-0.06059729
-0.089532657
-0.015385779
0.022591891
-0.064214211
-0.082298815
-0.02081116
0.035251114
-0.035278844
-0.082298815
-0.004535016
0.022591891
-0.044321146
-0.078681894
-0.026236541
0.028017272
-0.035278844
-0.075064973
0.000890365
0.040676495
-0.031661923
-0.053363448
0.006315747
0.035251114
-0.035278844
-0.082298815
-0.006343476
0.06056956
-0.008151937
-0.06240575
0.035251114
0.080462625
0.011741128
0.000890365
0.091313388
0.118440295
0.042484956
0.011741128
0.085888006
0.114823374
0.031634193
-0.006343476
0.037059574
0.046101877
-0.044321146
-0.078681894
0.004507286
0.051527258
-0.028045002
-0.075064973
0.002698826
0.038868035
-0.035278844
-0.073256513
0.02078343
0.071420323
-0.011768858
-0.053363448
0.024400351
0.160034885
0.295669418
0.523535435
0.841824474
0.94671518
0.726083005
0.366199376
0.114823374
-0.035278844
-0.154637233
-0.170913377
-0.067831132
-0.006343476
-0.073256513
-0.104000341
-0.009960397
0.024400351
-0.075064973
-0.127510326
-0.031661923
0.015358049
-0.064214211
-0.091341118
-0.017194239
0.006315747
-0.058788829
-0.084107276
-0.02261962
0.017166509
-0.047938067
-0.082298815
0.033442653
0.075037244
-0.0190027
-0.042512685
0.028017272
0.080462625
0.011741128
-0.006343476
0.073228783
0.167268727
0.105781071
0.064186481
0.129291057
0.187161792
0.150992583
0.120248755
0.225139461
0.284818656
0.183544871
0.132907978
0.185353331
0.198012554
0.085888006
0.017166509
0.080462625
0.078654165
-0.051554988
-0.105808801
-0.038895765
-0.026236541
-0.127510326
-0.170913377
-0.082298815
-0.047938067
-0.131127247
-0.174530298
-0.10219188
-0.076873434
-0.129318787
-0.14016955
-0.084107276
-0.064214211
-0.14197801
-0.156445694
-0.073256513
-0.051554988
-0.118468024
-0.138361089
-0.064214211
-0.029853462
-0.10219188
-0.14016955
-0.024428081
0.008124207
-0.078681894
-0.087724197
-0.006343476
0.02078343
-0.06240575
-0.087724197
0.006315747
0.046101877
-0.024428081
-0.058788829
0.037059574
0.040676495
-0.047938067
-0.058788829
0.01897497
0.033442653
-0.058788829
-0.073256513
0.006315747
0.031634193
-0.058788829
-0.10219188
-0.031661923
0.015358049
-0.035278844
-0.064214211
0.006315747
0.017166509
-0.064214211
-0.109425722
-0.02261962
0.028017272
-0.049746527
-0.078681894
0.000890365
0.024400351
-0.035278844
-0.073256513
0.006315747
0.01897497
-0.049746527
-0.080490355
-0.004535016
0.022591891
-0.073256513
-0.096766499
-0.009960397
0.017166509
-0.038895765
-0.066022671
-0.006343476
0.011741128
-0.038895765
-0.053363448
0.01897497
0.056952639
-0.0190027
-0.040704225
0.042484956
0.051527258
-0.055171909
-0.075064973
-0.000918095
0.022591891
-0.035278844
-0.073256513
0.013549589
0.051527258
-0.006343476
-0.044321146
0.049718797
0.078654165
0.015358049
0.017166509
0.096738769
0.122057215
0.009932668
-0.042512685
0.013549589
0.031634193
-0.064214211
-0.091341118
0.004507286
0.022591891
-0.080490355
-0.132935708
-0.02081116
-0.000918095
-0.094958038
-0.107617262
-0.02081116
0.006315747
-0.071448053
-0.107617262
-0.026236541
0.069611862
0.235990224
0.483749305
0.729699926
0.792996042
0.58502309
0.30290326
0.096738769
-0.047938067
-0.199848744
-0.22335873
-0.122084945
-0.105808801
-0.165487996
-0.167296456
-0.073256513
-0.013577318
-0.089532657
-0.129318787
-0.06240575
-0.053363448
-0.122084945
-0.136552629
-0.047938067
-0.035278844
-0.138361089
-0.163679535
-0.053363448
-0.024428081
-0.105808801
-0.122084945
-0.038895765
-0.008151937
-0.091341118
-0.093149578
0.004507286
0.02078343
-0.046129606
-0.040704225
0.064186481
0.087696467
0.017166509
0.013549589
0.129291057
0.147375662
0.087696467
0.107589532
0.22152254
0.21971408
0.138333359
0.114823374
0.176311029
0.167268727
0.047910337
0.013549589
0.078654165
0.056952639
-0.051554988
-0.075064973
-0.000918095
0.002698826
-0.114851103
-0.138361089
-0.035278844
-0.028045002
-0.127510326
-0.118468024
-0.037087304
-0.035278844
-0.151020312
-0.154637233
-0.053363448
-0.042512685
-0.118468024
-0.14197801
-0.044321146
-0.029853462
-0.107617262
-0.127510326
-0.053363448
-0.035278844
-0.122084945
-0.125701866
-0.033470383
-0.006343476
-0.069639592
-0.091341118
-0.013577318
-0.0190027
-0.109425722
-0.105808801
-0.0190027
-0.006343476
-0.107617262
-0.122084945
-0.000918095
-0.006343476
-0.122084945
-0.122084945
-0.008151937
-0.006343476
-0.098574959
-0.123893406
-0.02261962
-0.0190027
-0.087724197
-0.076873434
0.006315747
-0.006343476
-0.094958038
-0.096766499
-0.017194239
-0.0190027
-0.098574959
-0.087724197
-0.004535016
0.006315747
-0.094958038
-0.091341118
-0.004535016
0.006315747
-0.064214211
-0.06240575
0.013549589
0.000890365
-0.10038342
-0.084107276
0.013549589
0.047910337
-0.058788829
-0.073256513
0.017166509
0.01897497
-0.080490355
-0.084107276
0.006315747
0.02078343
-0.058788829
-0.049746527
0.047910337
0.06056956
-0.000918095
0.022591891
0.093121848
0.075037244
0.006315747
0.022591891
0.136524899
0.120248755
0.024400351
-0.000918095
0.06056956
0.033442653
-0.051554988
-0.073256513
0.006315747
-0.004535016
-0.084107276
-0.093149578
-0.002726556
-0.011768858
-0.113042643
-0.125701866
-0.004535016
-0.017194239
-0.093149578
-0.098574959
-0.024428081
-0.031661923
-0.064214211
0.114823374
0.456622398
0.648319206
0.66459535
0.630234601
0.516301593
0.223331001
-0.066022671
-0.194423363
-0.136552629
-0.120276485
-0.18176414
-0.160062615
-0.06240575
-0.064214211
-0.134744168
-0.131127247
-0.037087304
-0.013577318
-0.075064973
-0.096766499
-0.013577318
-0.031661923
-0.109425722
-0.078681894
0.009932668
0.009932668
-0.076873434
-0.075064973
0.009932668
-0.006343476
-0.06059729
-0.051554988
0.044293416
0.046101877
-0.033470383
-0.038895765
0.075037244
0.078654165
0.006315747
0.037059574
0.109397992
0.134716439
0.064186481
0.10216415
0.207054856
0.176311029
0.09854723
0.114823374
0.192587173
0.205246396
0.103972611
0.062378021
0.132907978
0.111206453
-0.069639592
-0.109425722
0.056952639
0.002698826
-0.10219188
-0.122084945
-0.015385779
-0.049746527
-0.147403391
-0.151020312
-0.046129606
0.006315747
-0.113042643
-0.151020312
-0.055171909
-0.015385779
-0.14197801
-0.129318787
-0.058788829
-0.073256513
-0.187189521
-0.082298815
0.02078343
-0.047938067
-0.151020312
-0.113042643
-0.044321146
-0.015385779
-0.116659564
-0.118468024
-0.037087304
0.002698826
-0.084107276
-0.067831132
-0.038895765
0.013549589
-0.071448053
-0.082298815
-0.000918095
-0.008151937
-0.089532657
-0.087724197
-0.006343476
-0.006343476
-0.087724197
-0.064214211
0.037059574
0.002698826
-0.085915736
-0.071448053
0.008124207
0.024400351
-0.076873434
-0.087724197
0.017166509
0.008124207
-0.093149578
-0.082298815
0.031634193
0.022591891
-0.066022671
-0.076873434
0.028017272
-0.006343476
-0.093149578
-0.064214211
0.033442653
-0.002726556
-0.069639592
-0.026236541
0.035251114
0.004507286
-0.084107276
-0.06059729
0.017166509
-0.000918095
-0.058788829
-0.035278844
0.049718797
0.051527258
-0.035278844
-0.0190027
0.047910337
0.008124207
-0.078681894
-0.066022671
0.038868035
0.042484956
-0.035278844
-0.000918095
0.080462625
0.075037244
-0.006343476
0.013549589
0.134716439
0.143758741
0.049718797
0.035251114
0.105781071
0.082271086
-0.024428081
-0.008151937
0.062378021
0.040676495
-0.040704225
-0.038895765
0.024400351
-0.000918095
-0.113042643
-0.107617262
-0.0190027
-0.02081116
-0.087724197
-0.076873434
0.017166509
-0.008151937
-0.098574959
-0.055171909
0.06056956
0.18173641
0.34268939
0.613958457
0.850866776
0.805655265
0.496408528
0.192587173
0.009932668
-0.134744168
-0.210699507
-0.138361089
-0.042512685
-0.066022671
-0.14016955
-0.113042643
-0.037087304
-0.066022671
-0.131127247
-0.093149578
-0.008151937
-0.035278844
-0.114851103
-0.089532657
-0.000918095
-0.033470383
-0.104000341
-0.055171909
0.009932668
-0.028045002
-0.085915736
-0.040704225
0.037059574
-0.011768858
-0.093149578
-0.064214211
0.049718797
0.046101877
-0.026236541
0.002698826
0.09854723
0.093121848
0.042484956
0.109397992
0.196204094
0.178119489
0.132907978
0.154609503
0.22152254
0.18173641
0.109397992
0.118440295
0.205246396
0.152801043
0.040676495
0.038868035
0.10035569
0.046101877
-0.080490355
-0.064214211
-0.002726556
-0.035278844
-0.134744168
-0.094958038
-0.035278844
-0.087724197
-0.158254154
-0.125701866
-0.046129606
-0.094958038
-0.156445694
-0.120276485
-0.035278844
-0.069639592
-0.131127247
-0.096766499
-0.004535016
-0.076873434
-0.176338759
-0.123893406
-0.033470383
-0.044321146
-0.136552629
-0.127510326
-0.026236541
-0.044321146
-0.122084945
-0.111234182
-0.040704225
-0.06059729
-0.129318787
-0.107617262
-0.029853462
-0.06059729
-0.127510326
-0.107617262
0.056952639
-0.033470383
-0.089532657
-0.064214211
-0.006343476
-0.035278844
-0.094958038
-0.075064973
-0.026236541
-0.069639592
-0.118468024
-0.091341118
-0.02261962
-0.040704225
-0.114851103
-0.084107276
0.000890365
-0.037087304
-0.118468024
-0.093149578
-0.02261962
-0.047938067
-0.107617262
-0.055171909
0.009932668
-0.035278844
-0.122084945
-0.076873434
-0.006343476
-0.033470383
-0.094958038
-0.064214211
0.017166509
-0.02081116
-0.094958038
-0.064214211
-0.000918095
-0.02261962
-0.093149578
-0.038895765
0.051527258
-0.008151937
-0.084107276
-0.047938067
0.038868035
0.022591891
-0.073256513
-0.037087304
0.037059574
0.002698826
-0.06240575
-0.000918095
0.071420323
0.026208812
-0.044321146
0.024400351
0.14014182
0.122057215
0.037059574
0.053335718
0.114823374
0.093121848
0.013549589
0.049718797
0.085888006
0.026208812
-0.046129606
-0.0190027
0.035251114
-0.004535016
-0.069639592
-0.031661923
0.065994942
0.033442653
-0.055171909
-0.009960397
0.053335718
0.01897497
-0.035278844
-0.000918095
0.080462625
0.09854723
0.196204094
0.456622398
0.74416761
0.800229884
0.66459535
0.471090082
0.228756382
-0.024428081
-0.203465665
-0.149211852
-0.051554988
-0.053363448
-0.10219188
-0.053363448
0.009932668
-0.046129606
-0.147403391
-0.091341118
0.017166509
-0.033470383
-0.127510326
-0.093149578
0.000890365
-0.02081116
-0.098574959
-0.064214211
0.011741128
-0.029853462
-0.107617262
-0.031661923
0.024400351
-0.008151937
-0.076873434
-0.011768858
0.080462625
0.013549589
-0.040704225
0.022591891
0.089504927
0.078654165
-0.000918095
0.056952639
0.167268727
0.122057215
0.080462625
0.122057215
0.223331001
0.196204094
0.103972611
0.150992583
0.230564842
0.167268727
0.069611862
0.10216415
0.150992583
0.076845704
-0.000918095
0.013549589
0.053335718
-0.038895765
-0.122084945
-0.078681894
-0.024428081
-0.075064973
-0.151020312
-0.084107276
-0.002726556
-0.044321146
-0.14016955
-0.111234182
-0.047938067
-0.093149578
-0.160062615
-0.094958038
-0.013577318
-0.093149578
-0.167296456
-0.105808801
-0.044321146
-0.066022671
-0.136552629
-0.096766499
-0.037087304
-0.084107276
-0.122084945
-0.084107276
-0.008151937
-0.064214211
-0.118468024
-0.028045002
0.02078343
-0.031661923
-0.098574959
-0.037087304
0.031634193
-0.037087304
-0.104000341
-0.037087304
0.02078343
-0.033470383
-0.094958038
-0.058788829
0.026208812
-0.009960397
-0.093149578
-0.037087304
0.02078343
-0.035278844
-0.116659564
-0.064214211
0.017166509
-0.035278844
-0.087724197
-0.026236541
0.031634193
-0.035278844
-0.093149578
-0.024428081
0.037059574
-0.006343476
-0.06240575
-0.026236541
0.035251114
-0.015385779
-0.076873434
-0.035278844
0.013549589
-0.011768858
-0.073256513
-0.02081116
0.022591891
-0.024428081
-0.078681894
-0.028045002
0.049718797
-0.008151937
-0.093149578
-0.047938067
0.029825733
-0.004535016
-0.107617262
-0.064214211
0.022591891
-0.017194239
-0.10038342
-0.035278844
0.049718797
0.008124207
-0.058788829
0.000890365
0.080462625
0.051527258
0.02078343
0.075037244
0.134716439
0.065994942
-0.006343476
0.024400351
0.073228783
0.009932668
-0.055171909
-0.011768858
0.037059574
-0.035278844
-0.093149578
-0.035278844
0.024400351
-0.033470383
-0.085915736
-0.047938067
-0.004535016
-0.051554988
-0.093149578
-0.040704225
0.022591891
0.013549589
0.064186481
0.353540153
0.635659983
0.771294516
0.740550689
0.58502309
0.320987865
-0.002726556
-0.187189521
-0.156445694
-0.078681894
-0.098574959
-0.129318787
-0.055171909
-0.02081116
-0.091341118
-0.131127247
-0.044321146
-0.006343476
-0.073256513
-0.096766499
-0.0190027
0.02078343
-0.037087304
-0.089532657
-0.028045002
0.042484956
-0.0190027
-0.085915736
-0.02261962
0.040676495
-0.026236541
-0.078681894
-0.004535016
0.051527258
0.006315747
-0.044321146
0.028017272
0.109397992
0.051527258
0.01897497
0.096738769
0.187161792
0.122057215
0.053335718
0.120248755
0.199821015
0.150992583
0.10216415
0.172694108
0.22152254
0.138333359
0.065994942
0.120248755
0.14195028
0.035251114
-0.026236541
0.008124207
0.024400351
-0.064214211
-0.147403391
-0.082298815
-0.029853462
-0.075064973
-0.122084945
-0.080490355
-0.058788829
-0.113042643
-0.178147219
-0.116659564
-0.055171909
-0.104000341
-0.151020312
-0.073256513
-0.013577318
-0.085915736
-0.123893406
-0.049746527
-0.02081116
-0.093149578
-0.151020312
-0.075064973
-0.015385779
-0.087724197
-0.143786471
-0.078681894
-0.009960397
-0.089532657
-0.123893406
-0.049746527
0.002698826
-0.058788829
-0.089532657
-0.044321146
-0.006343476
-0.035278844
-0.069639592
-0.026236541
0.013549589
-0.051554988
-0.10219188
-0.031661923
0.033442653
-0.053363448
-0.107617262
-0.040704225
0.009932668
-0.044321146
-0.076873434
-0.017194239
0.040676495
-0.044321146
-0.094958038
-0.02081116
0.024400351
-0.058788829
-0.109425722
-0.031661923
0.022591891
-0.026236541
-0.073256513
-0.011768858
0.035251114
-0.011768858
-0.073256513
0.009932668
0.028017272
-0.02261962
-0.040704225
0.008124207
0.040676495
-0.038895765
-0.098574959
-0.02261962
0.049718797
-0.035278844
-0.105808801
-0.037087304
0.02078343
-0.038895765
-0.084107276
-0.006343476
0.015358049
-0.047938067
-0.06059729
0.022591891
0.056952639
-0.02081116
-0.073256513
0.006315747
0.056952639
-0.017194239
-0.049746527
0.009932668
0.067803402
0.06056956
-0.000918095
0.06056956
0.111206453
0.051527258
0.009932668
0.094930309
0.154609503
0.067803402
-0.006343476
0.024400351
0.064186481
-0.02261962
-0.066022671
-0.004535016
0.035251114
-0.035278844
-0.073256513
0.011741128
0.064186481
-0.015385779
-0.067831132
0.008124207
0.067803402
-0.004535016
-0.058788829
-0.006343476
0.056952639
0.071420323
0.223331001
0.534386198
0.802038344
0.802038344
0.66459535
0.456622398
0.18173641
-0.104000341
-0.198040284
-0.113042643
-0.055171909
-0.094958038
-0.14197801
-0.06240575
-0.008151937
-0.084107276
-0.109425722
-0.055171909
-0.004535016
-0.058788829
-0.089532657
-0.015385779
-0.002726556
-0.069639592
-0.111234182
-0.051554988
-0.006343476
-0.109425722
-0.113042643
0.006315747
0.02078343
-0.049746527
-0.091341118
-0.042512685
0.042484956
0.009932668
-0.035278844
0.055144179
0.09854723
0.044293416
0.024400351
0.118440295
0.198012554
0.143758741
0.152801043
0.165460266
0.248649447
0.14195028
0.167268727
0.212480238
0.205246396
0.161843345
0.071420323
0.138333359
0.134716439
0.013549589
-0.067831132
0.022591891
-0.004535016
-0.118468024
-0.06059729
-0.111234182
-0.033470383
-0.118468024
-0.143786471
-0.069639592
-0.037087304
-0.113042643
-0.161871075
-0.067831132
-0.035278844
-0.118468024
-0.151020312
-0.093149578
-0.067831132
-0.149211852
-0.179955679
-0.087724197
-0.037087304
-0.104000341
-0.127510326
-0.046129606
0.000890365
-0.093149578
-0.127510326
-0.047938067
-0.006343476
-0.087724197
-0.118468024
-0.031661923
0.002698826
-0.087724197
-0.105808801
-0.02261962
-0.000918095
-0.084107276
-0.093149578
-0.033470383
0.009932668
-0.064214211
-0.084107276
-0.033470383
-0.006343476
-0.056980369
-0.080490355
-0.0190027
0.008124207
-0.064214211
-0.107617262
-0.02081116
0.01897497
-0.064214211
-0.087724197
-0.000918095
0.011741128
-0.091341118
-0.109425722
-0.026236541
0.002698826
-0.064214211
-0.078681894
-0.033470383
-0.004535016
-0.080490355
-0.105808801
-0.024428081
-0.006343476
-0.073256513
-0.06240575
0.028017272
0.040676495
-0.067831132
-0.093149578
0.004507286
0.040676495
-0.035278844
-0.044321146
0.008124207
0.035251114
-0.055171909
-0.069639592
0.006315747
0.024400351
-0.049746527
-0.06059729
0.044293416
0.053335718
-0.002726556
-0.0190027
0.064186481
0.118440295
0.06056956
0.022591891
0.122057215
0.154609503
0.051527258
0.024400351
0.091313388
0.084079546
0.011741128
-0.011768858
0.022591891
0.022591891
-0.066022671
-0.094958038
-0.017194239
0.008124207
-0.076873434
-0.094958038
-0.015385779
-0.000918095
-0.073256513
-0.096766499
-0.015385779
0.022591891
0.009932668
0.143758741
0.469281622
0.733316847
0.718849163
0.632043062
0.509067751
0.198012554
-0.093149578
-0.192614903
-0.122084945
-0.080490355
-0.14197801
-0.136552629
-0.033470383
-0.035278844
-0.138361089
-0.158254154
-0.035278844
-0.006343476
-0.098574959
-0.122084945
-0.02081116
0.009932668
-0.082298815
-0.113042643
-0.033470383
0.006315747
-0.094958038
-0.10038342
-0.000918095
0.022591891
-0.064214211
-0.091341118
-0.006343476
0.02078343
-0.044321146
-0.06240575
0.069611862
0.089504927
0.022591891
0.006315747
0.093121848
0.114823374
0.067803402
0.109397992
0.194395633
0.196204094
0.09854723
0.087696467
0.167268727
0.167268727
0.076845704
0.06056956
0.147375662
0.122057215
-0.011768858
-0.066022671
0.002698826
0.002698826
-0.105808801
-0.134744168
-0.06059729
-0.051554988
-0.138361089
-0.147403391
-0.053363448
-0.040704225
-0.122084945
-0.143786471
-0.089532657
-0.067831132
-0.151020312
-0.151020312
-0.058788829
-0.046129606
-0.143786471
-0.152828773
-0.047938067
-0.02081116
-0.10219188
-0.105808801
-0.000918095
-0.035278844
-0.118468024
-0.127510326
-0.035278844
-0.006343476
-0.080490355
-0.094958038
-0.02261962
0.008124207
-0.080490355
-0.076873434
0.01897497
0.017166509
-0.055171909
-0.047938067
0.017166509
-0.009960397
-0.064214211
-0.053363448
0.013549589
0.009932668
-0.055171909
-0.066022671
0.028017272
0.035251114
-0.055171909
-0.073256513
0.035251114
0.037059574
-0.035278844
-0.037087304
0.067803402
0.065994942
-0.035278844
-0.051554988
0.037059574
0.06056956
-0.031661923
-0.047938067
0.037059574
0.056952639
-0.029853462
-0.033470383
0.064186481
0.062378021
-0.035278844
-0.0190027
0.051527258
0.051527258
-0.040704225
-0.040704225
0.051527258
0.040676495
-0.058788829
-0.040704225
0.046101877
0.040676495
-0.044321146
-0.031661923
0.046101877
0.051527258
-0.024428081
-0.006343476
0.080462625
0.085888006
0.017166509
0.0587611
0.14014182
0.107589532
0.033442653
0.046101877
0.114823374
0.082271086
-0.006343476
-0.029853462
0.037059574
0.031634193
-0.049746527
-0.080490355
-0.006343476
-0.006343476
-0.082298815
-0.082298815
-0.009960397
-0.006343476
-0.10219188
-0.078681894
0.028017272
0.02078343
-0.069639592
-0.042512685
0.17992795
0.400560124
0.559704644
0.747784531
0.832782172
0.650127666
0.239607145
0.008124207
-0.06240575
-0.093149578
-0.151020312
-0.14197801
-0.049746527
-0.049746527
-0.123893406
-0.123893406
-0.044321146
-0.047938067
-0.113042643
-0.093149578
-0.002726556
-0.033470383
-0.125701866
-0.113042643
0.008124207
0.024400351
-0.078681894
-0.067831132
0.031634193
0.040676495
-0.066022671
-0.064214211
0.064186481
0.089504927
-0.029853462
-0.026236541
0.071420323
0.085888006
0.022591891
0.000890365
0.105781071
0.129291057
0.080462625
0.107589532
0.212480238
0.223331001
0.149184122
0.14195028
0.239607145
0.234181763
0.147375662
0.152801043
0.226947921
0.18173641
0.047910337
0.042484956
0.067803402
0.01897497
-0.078681894
-0.093149578
-0.015385779
-0.033470383
-0.120276485
-0.113042643
-0.06240575
-0.10038342
-0.18176414
-0.167296456
-0.051554988
-0.028045002
-0.10219188
-0.127510326
-0.069639592
-0.093149578
-0.167296456
-0.122084945
-0.047938067
-0.058788829
-0.131127247
-0.085915736
-0.02081116
-0.046129606
-0.138361089
-0.134744168
-0.031661923
-0.031661923
-0.113042643
-0.10038342
-0.026236541
-0.035278844
-0.091341118
-0.073256513
0.026208812
0.015358049
-0.091341118
-0.085915736
-0.031661923
-0.035278844
-0.109425722
-0.093149578
0.02078343
0.022591891
-0.076873434
-0.10038342
-0.029853462
-0.037087304
-0.120276485
-0.111234182
-0.015385779
-0.013577318
-0.084107276
-0.066022671
0.009932668
0.008124207
-0.080490355
-0.067831132
0.011741128
0.006315747
-0.078681894
-0.082298815
-0.011768858
0.002698826
-0.080490355
-0.058788829
0.026208812
0.017166509
-0.089532657
-0.093149578
0.000890365
-0.009960397
-0.098574959
-0.091341118
0.009932668
0.02078343
-0.055171909
-0.051554988
0.040676495
0.022591891
-0.06240575
-0.035278844
0.053335718
0.056952639
-0.06059729
-0.058788829
0.046101877
0.029825733
-0.058788829
-0.037087304
0.049718797
0.051527258
-0.02081116
-0.015385779
0.071420323
0.091313388
0.011741128
0.035251114
0.158226424
0.150992583
0.053335718
0.049718797
0.122057215
0.080462625
-0.044321146
-0.000918095
0.073228783
0.011741128
-0.087724197
-0.069639592
0.006315747
-0.002726556
-0.064214211
-0.035278844
0.024400351
0.013549589
-0.042512685
-0.033470383
0.053335718
0.022591891
-0.009960397
0.194395633
0.519918514
0.733316847
0.780336819
0.762252214
0.58502309
0.245032526
-0.073256513
-0.136552629
-0.064214211
-0.069639592
-0.143786471
-0.10219188
0.008124207
-0.011768858
-0.122084945
-0.091341118
0.002698826
-0.02081116
-0.087724197
-0.073256513
0.004507286
0.002698826
-0.093149578
-0.051554988
0.022591891
-0.009960397
-0.085915736
-0.037087304
0.049718797
0.017166509
-0.064214211
-0.035278844
0.053335718
0.035251114
-0.011768858
0.035251114
0.10216415
0.084079546
0.01897497
0.082271086
0.194395633
0.187161792
0.109397992
0.150992583
0.237798684
0.225139461
0.138333359
0.158226424
0.259500209
0.241415605
0.167268727
0.158226424
0.176311029
0.109397992
-0.000918095
0.006315747
0.046101877
0.013549589
-0.084107276
-0.080490355
-0.009960397
-0.038895765
-0.122084945
-0.109425722
-0.044321146
-0.078681894
-0.14016955
-0.107617262
-0.049746527
-0.082298815
-0.151020312
-0.116659564
-0.044321146
-0.089532657
-0.154637233
-0.107617262
-0.02261962
-0.06240575
-0.127510326
-0.094958038
-0.035278844
-0.058788829
-0.127510326
-0.071448053
-0.011768858
-0.038895765
-0.109425722
-0.069639592
-0.000918095
-0.026236541
-0.098574959
-0.046129606
0.017166509
-0.024428081
-0.078681894
-0.047938067
0.024400351
-0.017194239
-0.093149578
-0.044321146
0.082271086
0.029825733
-0.06240575
-0.06059729
0.022591891
-0.006343476
-0.073256513
-0.044321146
0.040676495
0.006315747
-0.080490355
-0.058788829
0.02078343
0.011741128
-0.087724197
-0.075064973
0.038868035
0.006315747
-0.080490355
-0.053363448
0.011741128
-0.011768858
-0.094958038
-0.053363448
0.022591891
-0.011768858
-0.080490355
-0.044321146
0.042484956
0.008124207
-0.076873434
-0.056980369
0.02078343
-0.013577318
-0.094958038
-0.066022671
0.053335718
0.042484956
-0.073256513
-0.064214211
0.006315747
-0.0190027
-0.06059729
-0.008151937
0.069611862
0.01897497
-0.035278844
0.053335718
0.14014182
0.09854723
0.022591891
0.049718797
0.10216415
0.042484956
-0.051554988
0.008124207
0.064186481
-0.006343476
-0.096766499
-0.066022671
-0.002726556
-0.044321146
-0.114851103
-0.080490355
-0.006343476
-0.02261962
-0.120276485
-0.078681894
0.009932668
-0.033470383
-0.093149578
0.013549589
0.234181763
0.413219348
0.5434285
0.707998401
0.765869135
0.5434285
0.178119489
-0.015385779
-0.075064973
-0.147403391
-0.234209493
-0.156445694
-0.040704225
-0.038895765
-0.127510326
-0.091341118
-0.093149578
-0.091341118
-0.107617262
-0.111234182
-0.006343476
-0.031661923
-0.116659564
-0.073256513
-0.006343476
-0.071448053
-0.111234182
-0.066022671
0.008124207
-0.037087304
-0.078681894
-0.047938067
0.046101877
0.002698826
-0.093149578
-0.006343476
0.080462625
-0.006343476
-0.031661923
0.024400351
0.09854723
0.067803402
0.002698826
0.033442653
0.172694108
0.14014182
0.085888006
0.136524899
0.14014182
0.134716439
0.062378021
0.109397992
0.165460266
0.082271086
0.042484956
0.037059574
0.056952639
-0.008151937
-0.111234182
-0.094958038
-0.026236541
-0.084107276
-0.149211852
-0.122084945
-0.053363448
-0.071448053
-0.134744168
-0.123893406
-0.064214211
-0.104000341
-0.174530298
-0.107617262
-0.055171909
-0.091341118
-0.18176414
-0.113042643
0.008124207
-0.066022671
-0.149211852
-0.104000341
-0.064214211
-0.113042643
-0.174530298
-0.107617262
-0.02081116
-0.056980369
-0.10219188
-0.064214211
-0.008151937
-0.064214211
-0.145594931
-0.093149578
0.002698826
-0.053363448
-0.131127247
-0.082298815
-0.008151937
-0.073256513
-0.129318787
-0.069639592
0.006315747
-0.035278844
-0.105808801
-0.073256513
-0.008151937
-0.035278844
-0.094958038
-0.044321146
-0.0190027
-0.067831132
-0.118468024
-0.082298815
-0.004535016
-0.056980369
-0.120276485
-0.064214211
-0.000918095
-0.040704225
-0.151020312
-0.10038342
0.006315747
-0.049746527
-0.113042643
-0.047938067
0.028017272
-0.040704225
-0.136552629
-0.06059729
0.009932668
-0.064214211
-0.136552629
-0.058788829
0.026208812
-0.002726556
-0.058788829
-0.013577318
0.065994942
0.037059574
-0.011768858
0.044293416
0.118440295
0.049718797
-0.013577318
0.042484956
0.071420323
-0.02081116
-0.080490355
-0.040704225
0.006315747
-0.058788829
-0.125701866
-0.069639592
-0.015385779
-0.044321146
-0.084107276
-0.026236541
0.022591891
-0.073256513
-0.116659564
-0.058788829
0.013549589
0.006315747
0.064186481
0.324604786
0.626617681
0.736933768
0.70618994
0.621192299
0.349923232
0.033442653
-0.179955679
-0.178147219
-0.096766499
-0.113042643
-0.151020312
-0.082298815
-0.029853462
-0.094958038
-0.160062615
-0.080490355
-0.002726556
-0.075064973
-0.123893406
-0.075064973
-0.011768858
-0.044321146
-0.091341118
-0.046129606
0.006315747
-0.049746527
-0.096766499
-0.046129606
0.01897497
-0.037087304
-0.091341118
-0.015385779
0.051527258
0.008124207
-0.044321146
0.017166509
0.094930309
0.065994942
0.008124207
0.080462625
0.160034885
0.132907978
0.089504927
0.156417964
0.266734051
0.245032526
0.14014182
0.194395633
0.245032526
0.158226424
0.078654165
0.120248755
0.14014182
0.051527258
-0.035278844
0.011741128
0.071420323
-0.028045002
-0.129318787
-0.084107276
-0.026236541
-0.069639592
-0.098574959
-0.035278844
-0.006343476
-0.10038342
-0.158254154
-0.093149578
-0.035278844
-0.084107276
-0.14197801
-0.080490355
0.004507286
-0.051554988
-0.114851103
-0.078681894
-0.011768858
-0.067831132
-0.134744168
-0.055171909
0.006315747
-0.053363448
-0.10219188
-0.029853462
0.02078343
-0.056980369
-0.114851103
-0.037087304
0.031634193
-0.02081116
-0.10219188
-0.037087304
0.022591891
-0.044321146
-0.096766499
-0.026236541
0.024400351
-0.029853462
-0.084107276
-0.035278844
0.02078343
-0.049746527
-0.122084945
-0.040704225
-0.000918095
-0.058788829
-0.111234182
-0.06240575
0.004507286
-0.047938067
-0.114851103
-0.051554988
0.008124207
-0.047938067
-0.098574959
-0.035278844
0.004507286
-0.049746527
-0.082298815
-0.031661923
-0.000918095
-0.047938067
-0.073256513
-0.026236541
0.028017272
-0.055171909
-0.118468024
-0.051554988
0.006315747
-0.051554988
-0.093149578
-0.029853462
0.022591891
-0.035278844
-0.075064973
-0.031661923
0.008124207
-0.035278844
-0.082298815
-0.000918095
0.067803402
0.015358049
-0.037087304
0.011741128
0.067803402
0.015358049
-0.02081116
0.06056956
0.109397992
0.022591891
-0.055171909
-0.008151937
0.024400351
-0.051554988
-0.122084945
-0.035278844
0.01897497
-0.056980369
-0.091341118
-0.024428081
0.024400351
-0.029853462
-0.084107276
-0.015385779
0.051527258
-0.011768858
-0.076873434
0.008124207
0.14195028
0.266734051
0.469281622
0.755018372
0.887035985
0.700764559
0.369816297
0.156417964
0.004507286
-0.161871075
-0.22335873
-0.116659564
-0.026236541
-0.078681894
-0.120276485
-0.064214211
-0.037087304
-0.087724197
-0.125701866
-0.064214211
0.02078343
-0.024428081
-0.093149578
-0.033470383
0.002698826
-0.055171909
-0.098574959
-0.006343476
0.056952639
-0.000918095
-0.06240575
0.006315747
0.065994942
-0.006343476
-0.044321146
0.031634193
0.093121848
0.046101877
0.009932668
0.091313388
0.167268727
0.111206453
0.094930309
0.201629475
0.254074828
0.172694108
0.143758741
0.22152254
0.254074828
0.18173641
0.149184122
0.225139461
0.254074828
0.158226424
0.09854723
0.136524899
0.109397992
0.02078343
-0.040704225
0.002698826
0.037059574
-0.046129606
-0.105808801
-0.046129606
-0.02261962
-0.093149578
-0.138361089
-0.093149578
-0.067831132
-0.109425722
-0.145594931
-0.066022671
-0.0190027
-0.093149578
-0.120276485
-0.038895765
-0.008151937
-0.091341118
-0.131127247
-0.051554988
-0.000918095
-0.085915736
-0.132935708
-0.049746527
-0.008151937
-0.093149578
-0.120276485
-0.017194239
0.031634193
-0.047938067
-0.120276485
-0.049746527
-0.000918095
-0.075064973
-0.109425722
-0.031661923
0.033442653
-0.042512685
-0.098574959
-0.02261962
0.028017272
-0.055171909
-0.073256513
-0.035278844
-0.02081116
-0.085915736
-0.107617262
-0.028045002
0.009932668
-0.06059729
-0.113042643
-0.013577318
0.01897497
-0.078681894
-0.107617262
-0.013577318
0.002698826
-0.078681894
-0.109425722
-0.047938067
0.02078343
-0.076873434
-0.093149578
-0.006343476
0.024400351
-0.044321146
-0.066022671
-0.006343476
-0.000918095
-0.056980369
-0.078681894
0.008124207
0.046101877
-0.031661923
-0.073256513
0.011741128
0.037059574
-0.026236541
-0.051554988
0.042484956
0.091313388
0.037059574
0.004507286
0.107589532
0.132907978
0.047910337
0.02078343
0.085888006
0.093121848
0.02078343
-0.028045002
0.040676495
0.040676495
-0.038895765
-0.049746527
-0.006343476
0.009932668
-0.069639592
-0.107617262
-0.02261962
0.002698826
-0.080490355
-0.109425722
-0.051554988
-0.009960397
-0.080490355
-0.087724197
0.056952639
0.26311713
0.415027808
0.58502309
0.764060675
0.751401451
0.429495492
0.09854723
-0.02081116
-0.058788829
-0.179955679
-0.167296456
-0.067831132
-0.044321146
-0.096766499
-0.134744168
-0.064214211
-0.049746527
-0.134744168
-0.147403391
-0.051554988
-0.024428081
-0.098574959
-0.131127247
-0.06059729
-0.029853462
-0.091341118
-0.094958038
-0.000918095
0.02078343
-0.087724197
-0.122084945
-0.024428081
0.049718797
-0.035278844
-0.091341118
-0.000918095
0.042484956
-0.042512685
-0.06059729
0.037059574
0.084079546
0.02078343
0.009932668
0.0587611
0.170885648
0.09854723
0.089504927
0.17992795
0.208863317
0.134716439
0.084079546
0.150992583
0.150992583
0.042484956
-0.006343476
0.056952639
0.056952639
-0.06240575
-0.123893406
-0.06240575
-0.038895765
-0.145594931
-0.18176414
-0.093149578
-0.055171909
-0.149211852
-0.152828773
-0.06240575
-0.037087304
-0.123893406
-0.154637233
-0.084107276
-0.058788829
-0.125701866
-0.165487996
-0.085915736
-0.0190027
-0.120276485
-0.160062615
-0.089532657
-0.049746527
-0.116659564
-0.132935708
-0.044321146
-0.0190027
-0.093149578
-0.145594931
-0.073256513
-0.006343476
-0.076873434
-0.105808801
-0.02081116
0.006315747
-0.076873434
-0.116659564
-0.02081116
0.009932668
-0.064214211
-0.085915736
-0.008151937
0.004507286
-0.073256513
-0.091341118
-0.013577318
0.002698826
-0.076873434
-0.093149578
-0.002726556
0.031634193
-0.064214211
-0.084107276
-0.002726556
0.022591891
-0.058788829
-0.078681894
0.013549589
0.033442653
-0.053363448
-0.076873434
-0.002726556
0.035251114
-0.0190027
-0.02081116
0.053335718
0.080462625
-0.02081116
-0.024428081
0.082271086
0.114823374
0.035251114
0.011741128
0.085888006
0.114823374
0.022591891
-0.029853462
0.051527258
0.064186481
-0.002726556
-0.044321146
0.015358049
0.002698826
-0.082298815
-0.069639592
0.006315747
0.022591891
-0.049746527
-0.078681894
-0.006343476
0.008124207
-0.055171909
-0.069639592
0.017166509
0.065994942
0.107589532
0.322796325
0.639276904
0.794804502
0.70618994
0.541620039
0.337264009
0.084079546
-0.143786471
-0.208891047
-0.111234182
-0.058788829
-0.120276485
-0.122084945
-0.037087304
0.002698826
-0.082298815
-0.123893406
-0.008151937
-0.035278844
-0.14016955
-0.131127247
-0.035278844
-0.008151937
-0.093149578
-0.109425722
-0.046129606
-0.037087304
-0.096766499
-0.091341118
-0.008151937
0.022591891
-0.031661923
-0.064214211
-0.008151937
0.064186481
-0.026236541
-0.033470383
0.075037244
0.089504927
0.047910337
0.056952639
0.152801043
0.167268727
0.094930309
0.122057215
0.21971408
0.207054856
0.129291057
0.138333359
0.250457907
0.212480238
0.109397992
0.071420323
0.138333359
0.156417964
-0.015385779
-0.02081116
0.047910337
-0.006343476
-0.14197801
-0.14016955
-0.035278844
-0.051554988
-0.093149578
-0.138361089
0.006315747
-0.02261962
-0.076873434
-0.098574959
-0.017194239
-0.004535016
-0.107617262
-0.122084945
-0.029853462
-0.017194239
-0.104000341
-0.091341118
0.024400351
0.031634193
-0.058788829
-0.064214211
0.031634193
0.035251114
-0.058788829
-0.064214211
0.009932668
0.02078343
-0.066022671
-0.071448053
0.015358049
0.024400351
-0.053363448
-0.067831132
0.035251114
0.051527258
-0.026236541
-0.055171909
0.047910337
0.042484956
-0.069639592
-0.073256513
0.015358049
0.040676495
-0.040704225
-0.051554988
0.022591891
0.008124207
-0.078681894
-0.075064973
0.022591891
0.017166509
-0.049746527
-0.051554988
0.008124207
0.013549589
-0.047938067
-0.033470383
0.06056956
0.067803402
-0.008151937
0.006315747
0.109397992
0.10216415
0.01897497
0.022591891
0.138333359
0.132907978
0.02078343
0.011741128
0.085888006
0.071420323
-0.029853462
-0.02261962
0.069611862
0.051527258
-0.037087304
-0.051554988
0.031634193
0.022591891
-0.064214211
-0.049746527
0.042484956
0.06056956
-0.028045002
-0.02261962
0.040676495
0.051527258
0.038868035
0.212480238
0.541620039
0.74416761
0.773102977
0.722466084
0.575980788
0.255883289
-0.026236541
-0.107617262
-0.075064973
-0.049746527
-0.114851103
-0.107617262
0.000890365
-0.008151937
-0.105808801
-0.089532657
0.022591891
-0.009960397
-0.093149578
-0.094958038
-0.004535016
-0.0190027
-0.10038342
-0.113042643
-0.008151937
-0.006343476
-0.084107276
-0.084107276
-0.011768858
-0.0190027
-0.067831132
-0.06059729
0.013549589
0.009932668
-0.056980369
-0.044321146
0.067803402
0.085888006
0.011741128
0.051527258
0.174502568
0.150992583
0.064186481
0.096738769
0.196204094
0.203437936
0.134716439
0.152801043
0.225139461
0.194395633
0.076845704
0.051527258
0.113014913
0.080462625
-0.026236541
-0.040704225
0.028017272
0.008124207
-0.123893406
-0.138361089
-0.046129606
-0.080490355
-0.170913377
-0.158254154
-0.055171909
-0.053363448
-0.129318787
-0.113042643
-0.02081116
-0.051554988
-0.160062615
-0.167296456
-0.071448053
-0.056980369
-0.14197801
-0.134744168
-0.049746527
-0.066022671
-0.151020312
-0.151020312
-0.064214211
-0.064214211
-0.136552629
-0.116659564
0.000890365
-0.002726556
-0.122084945
-0.116659564
-0.033470383
-0.029853462
-0.111234182
-0.10038342
-0.000918095
0.004507286
-0.084107276
-0.093149578
-0.011768858
-0.0190027
-0.091341118
-0.075064973
-0.006343476
-0.015385779
-0.093149578
-0.067831132
0.004507286
-0.015385779
-0.087724197
-0.069639592
-0.000918095
-0.002726556
-0.087724197
-0.064214211
-0.000918095
-0.02261962
-0.094958038
-0.091341118
0.000890365
0.031634193
-0.049746527
-0.046129606
0.038868035
-0.002726556
-0.093149578
-0.087724197
-0.000918095
0.006315747
-0.073256513
-0.058788829
0.024400351
0.017166509
-0.066022671
-0.035278844
0.055144179
0.044293416
-0.033470383
0.017166509
0.103972611
0.078654165
-0.004535016
0.02078343
0.085888006
0.093121848
0.008124207
0.006315747
0.075037244
0.026208812
-0.075064973
-0.071448053
0.004507286
-0.004535016
-0.087724197
-0.06240575
0.022591891
-0.004535016
-0.085915736
-0.051554988
0.024400351
0.017166509
-0.058788829
-0.037087304
0.049718797
0.013549589
-0.029853462
0.069611862
0.368007836
0.58502309
0.718849163
0.830973711
0.758635293
0.413219348
0.02078343
-0.132935708
-0.111234182
-0.113042643
-0.158254154
-0.123893406
-0.02081116
-0.02261962
-0.109425722
-0.087724197
-0.015385779
-0.049746527
-0.107617262
-0.080490355
-0.009960397
-0.035278844
-0.107617262
-0.093149578
-0.006343476
-0.024428081
-0.111234182
-0.089532657
-0.000918095
-0.000918095
-0.067831132
-0.066022671
0.022591891
0.017166509
-0.080490355
-0.051554988
0.06056956
0.053335718
-0.026236541
0.026208812
0.14014182
0.122057215
0.056952639
0.085888006
0.17992795
0.174502568
0.096738769
0.118440295
0.208863317
0.176311029
0.087696467
0.093121848
0.147375662
0.085888006
-0.015385779
-0.006343476
0.051527258
-0.013577318
-0.131127247
-0.113042643
-0.053363448
-0.084107276
-0.151020312
-0.123893406
-0.06059729
-0.096766499
-0.172721838
-0.145594931
-0.064214211
-0.089532657
-0.174530298
-0.156445694
-0.058788829
-0.080490355
-0.160062615
-0.160062615
-0.069639592
-0.069639592
-0.151020312
-0.132935708
-0.047938067
-0.080490355
-0.152828773
-0.122084945
-0.044321146
-0.073256513
-0.136552629
-0.096766499
-0.035278844
-0.069639592
-0.147403391
-0.120276485
-0.035278844
-0.075064973
-0.131127247
-0.093149578
-0.006343476
-0.02261962
-0.109425722
-0.066022671
0.01897497
-0.0190027
-0.107617262
-0.082298815
-0.000918095
-0.02261962
-0.093149578
-0.073256513
-0.006343476
-0.029853462
-0.098574959
-0.056980369
0.017166509
-0.0190027
-0.078681894
-0.069639592
0.004507286
-0.02261962
-0.093149578
-0.080490355
-0.013577318
-0.02081116
-0.087724197
-0.064214211
-0.002726556
-0.0190027
-0.098574959
-0.080490355
-0.000918095
-0.0190027
-0.109425722
-0.078681894
0.013549589
-0.009960397
-0.094958038
-0.055171909
0.024400351
-0.0190027
-0.064214211
-0.011768858
0.067803402
0.042484956
-0.006343476
0.047910337
0.129291057
0.085888006
-0.006343476
0.009932668
0.076845704
0.028017272
-0.064214211
-0.02261962
0.049718797
-0.013577318
-0.10038342
-0.051554988
0.022591891
-0.02081116
-0.093149578
-0.06059729
0.01897497
-0.008151937
-0.069639592
-0.035278844
0.040676495
0.035251114
0.109397992
0.398751664
0.70618994
0.816506028
0.718849163
0.532577737
0.283010195
0.002698826
-0.199848744
-0.198040284
-0.089532657
-0.075064973
-0.136552629
-0.113042643
-0.042512685
-0.082298815
-0.134744168
-0.082298815
-0.029853462
