-0.05576080093439442
-0.11509289552083009
-0.09445564522989594
-0.027384581784359964
-0.04931166021847749
-0.09445564522989594
-0.06736925422304488
-0.006747331493425821
-0.04544217578892734
-0.09316581708671255
-0.06220994165031133
-0.0028778470638756693
-0.018355784782076275
-0.07768787936851194
-0.059630285363944574
-0.0002981907775089009
-0.018355784782076275
-0.07381839493896179
-0.04931166021847749
0.002281465508857867
-0.013196472209342742
-0.07639805122532856
-0.053181144648027645
0.002281465508857867
-0.026094753641176582
-0.0815573637980621
-0.05576080093439442
-0.010616815922975973
-0.033833722500276886
-0.07381839493896179
-0.04544217578892734
-0.001588018920692285
-0.032543894357093504
-0.09058616080034579
-0.07381839493896179
-0.02222526921162643
-0.053181144648027645
-0.10348444223217963
-0.06220994165031133
-0.00932698777979259
-0.033833722500276886
-0.09316581708671255
-0.0725285667957784
-0.015776128495709512
-0.04544217578892734
-0.09058616080034579
-0.06349976979349473
-0.00932698777979259
-0.027384581784359964
-0.09187598894352916
-0.07123873865259503
-0.001588018920692285
-0.026094753641176582
-0.07768787936851194
-0.04931166021847749
0.008730606224774787
-0.033833722500276886
-0.0725285667957784
-0.04286251950256058
0.004861121795224636
-0.013196472209342742
-0.0570506290775778
-0.02867440992754335
0.02549837208615878
0.015179746940691708
-0.029964238070726734
0.002281465508857867
0.0487152786634597
0.030657684658892317
-0.019645612925259664
0.007440778081591404
0.05903390380892676
0.022918715799792013
-0.04415234764574396
-0.015776128495709512
0.038396653517992624
0.002281465508857867
-0.06994891050941164
-0.0647895979366781
-0.019645612925259664
-0.036413378786643656
-0.07897770751169533
-0.053181144648027645
0.002281465508857867
-0.032543894357093504
-0.06736925422304488
-0.02867440992754335
0.03323734094525908
-0.0028778470638756693
-0.053181144648027645
-0.03512355064346027
0.04097630980435939
0.10804737324989536
0.234450531281867
0.4382433779048417
0.5904430988004811
0.5362703167867789
0.35053506416837155
0.15706084269086396
0.04355596609072616
-0.09058616080034579
-0.17700464639363253
-0.11638272366401346
-0.032543894357093504
-0.04673200393211073
-0.09445564522989594
-0.06220994165031133
-0.02867440992754335
-0.04157269135937719
-0.07381839493896179
-0.04415234764574396
-0.008037159636609205
-0.033833722500276886
-0.0892963326571624
-0.05447097279121103
0.004861121795224636
-0.029964238070726734
-0.07381839493896179
-0.04673200393211073
0.008730606224774787
-0.018355784782076275
-0.06349976979349473
-0.031254066213910116
0.021628887656608628
-0.0002981907775089009
-0.04286251950256058
-0.011906644066159357
0.04097630980435939
0.01646957508387509
-0.023515097354809816
0.01646957508387509
0.07451184152712738
0.06032373195211015
0.03323734094525908
0.07967115409986092
0.14416256125903013
0.1041778888203452
0.05645424752256
0.1054677169635286
0.1531913582613138
0.13126427982719627
0.09127960738851137
0.12868462354082952
0.17382860855224794
0.12610496725446274
0.04613562237709293
0.061613560095293535
0.09256943553169475
0.05258476309300985
-0.0028778470638756693
0.017759403227058476
0.05000510680664308
0.002281465508857867
-0.059630285363944574
-0.03899303507301042
0.007440778081591404
-0.04286251950256058
-0.09832512965944609
-0.0570506290775778
0.004861121795224636
-0.033833722500276886
-0.08413702008442886
-0.06349976979349473
-0.023515097354809816
-0.04415234764574396
-0.08671667637079564
-0.04673200393211073
0.007440778081591404
-0.032543894357093504
-0.07381839493896179
-0.04286251950256058
-0.0028778470638756693
-0.03512355064346027
-0.07639805122532856
-0.032543894357093504
0.010020434367958173
-0.008037159636609205
-0.036413378786643656
-0.011906644066159357
0.015179746940691708
-0.019645612925259664
-0.04286251950256058
-0.0002981907775089009
0.020339059513425243
-0.019645612925259664
-0.06607942607986149
-0.029964238070726734
0.017759403227058476
-0.013196472209342742
-0.059630285363944574
-0.023515097354809816
0.011310262511141556
-0.02222526921162643
-0.05447097279121103
-0.015776128495709512
0.022918715799792013
-0.013196472209342742
-0.06092011350712795
-0.032543894357093504
0.020339059513425243
-0.018355784782076275
-0.0725285667957784
-0.031254066213910116
0.015179746940691708
-0.010616815922975973
-0.06607942607986149
-0.026094753641176582
0.01904923137024186
-0.011906644066159357
-0.053181144648027645
-0.005457503350242437
0.05000510680664308
0.015179746940691708
-0.029964238070726734
0.008730606224774787
0.06935252895439384
0.030657684658892317
-0.03899303507301042
-0.011906644066159357
0.03323734094525908
-0.010616815922975973
-0.07123873865259503
-0.032543894357093504
-0.010616815922975973
-0.06092011350712795
-0.09445564522989594
-0.04286251950256058
0.015179746940691708
-0.036413378786643656
-0.07510822308214518
-0.020935441068443045
0.011310262511141556
-0.04931166021847749
-0.09316581708671255
-0.036413378786643656
0.008730606224774787
-0.023515097354809816
-0.020935441068443045
0.13255410797037967
0.3402164390229045
0.462750112625326
0.4833873629162601
0.4859670192026269
0.3802011114615894
0.12868462354082952
-0.04157269135937719
-0.08026753565487871
-0.06607942607986149
-0.08413702008442886
-0.10864375480491316
-0.05576080093439442
-0.0028778470638756693
-0.03899303507301042
-0.10477427037536301
-0.07123873865259503
-0.011906644066159357
-0.04286251950256058
-0.07381839493896179
-0.032543894357093504
-0.013196472209342742
-0.053181144648027645
-0.08800650451397901
-0.03512355064346027
0.010020434367958173
-0.023515097354809816
-0.08413702008442886
-0.05189131650484427
-0.0002981907775089009
-0.026094753641176582
-0.053181144648027645
-0.0028778470638756693
0.035816997231625854
0.010020434367958173
-0.029964238070726734
0.039686481661176005
0.07967115409986092
0.02936785651570893
0.007440778081591404
0.07451184152712738
0.11062702953626212
0.0719321852407606
0.038396653517992624
0.10030840439079505
0.15706084269086396
0.10159823253397844
0.05903390380892676
0.10159823253397844
0.14158290497266335
0.10288806067716182
0.051294934949826454
0.08741012295896122
0.10804737324989536
0.04097630980435939
-0.024804925497993197
0.01260009065432494
0.04742545052027631
-0.011906644066159357
-0.06607942607986149
-0.031254066213910116
-0.0028778470638756693
-0.04931166021847749
-0.0647895979366781
-0.033833722500276886
-0.024804925497993197
-0.07381839493896179
-0.09832512965944609
-0.04931166021847749
-0.008037159636609205
-0.06865908236622825
-0.10864375480491316
-0.0570506290775778
-0.011906644066159357
-0.053181144648027645
-0.09445564522989594
-0.04415234764574396
-0.0028778470638756693
-0.032543894357093504
-0.08413702008442886
-0.029964238070726734
0.00615094993840802
-0.033833722500276886
-0.07123873865259503
-0.03512355064346027
0.0035712936520412514
-0.04673200393211073
-0.06736925422304488
-0.011906644066159357
0.020339059513425243
-0.02867440992754335
-0.05189131650484427
-0.011906644066159357
0.01904923137024186
-0.008037159636609205
-0.04931166021847749
-0.0028778470638756693
0.034527169088442465
-0.010616815922975973
-0.04802183207529411
-0.0002981907775089009
0.026788200229342165
-0.018355784782076275
-0.02867440992754335
0.022918715799792013
0.051294934949826454
0.01904923137024186
-0.006747331493425821
0.05387459123619323
0.07967115409986092
0.03323734094525908
-0.0028778470638756693
0.04355596609072616
0.05645424752256
-0.008037159636609205
-0.059630285363944574
-0.024804925497993197
-0.004167675207059053
-0.033833722500276886
-0.06349976979349473
-0.031254066213910116
-0.011906644066159357
-0.05447097279121103
-0.08026753565487871
-0.04028286321619381
0.00615094993840802
-0.04415234764574396
-0.07510822308214518
-0.031254066213910116
0.004861121795224636
-0.04415234764574396
-0.08413702008442886
0.004861121795224636
0.11578634210899566
0.21381328099093289
0.34279609530927124
0.5311110042140453
0.5852837862277475
0.4098671587548072
0.16350998340678088
0.035816997231625854
-0.032543894357093504
-0.11509289552083009
-0.13959963024131436
-0.06865908236622825
-0.020935441068443045
-0.07381839493896179
-0.09961495780262947
-0.04286251950256058
0.008730606224774787
-0.04157269135937719
-0.09316581708671255
-0.033833722500276886
-0.0002981907775089009
-0.04157269135937719
-0.08413702008442886
-0.04028286321619381
0.004861121795224636
-0.03899303507301042
-0.06349976979349473
-0.02222526921162643
0.007440778081591404
-0.031254066213910116
-0.06607942607986149
-0.020935441068443045
0.03323734094525908
-0.011906644066159357
-0.04157269135937719
0.017759403227058476
0.038396653517992624
0.010020434367958173
-0.011906644066159357
0.05000510680664308
0.08741012295896122
0.05000510680664308
0.02936785651570893
0.09127960738851137
0.12868462354082952
0.07064235709757723
0.05903390380892676
0.1209456546817292
0.14158290497266335
0.10030840439079505
0.06806270081121045
0.11578634210899566
0.13255410797037967
0.061613560095293535
0.008730606224774787
0.038396653517992624
0.05000510680664308
-0.020935441068443045
-0.06092011350712795
-0.013196472209342742
-0.004167675207059053
-0.053181144648027645
-0.09574547337307932
-0.05189131650484427
-0.032543894357093504
-0.08284719194124548
-0.09058616080034579
-0.036413378786643656
-0.0002981907775089009
-0.07123873865259503
-0.11767255180719685
-0.04157269135937719
-0.005457503350242437
-0.06994891050941164
-0.09445564522989594
-0.032543894357093504
-0.011906644066159357
-0.07510822308214518
-0.1060640985185464
-0.053181144648027645
-0.001588018920692285
-0.05189131650484427
-0.08413702008442886
-0.023515097354809816
0.008730606224774787
-0.04028286321619381
-0.06607942607986149
-0.010616815922975973
0.008730606224774787
-0.029964238070726734
-0.04157269135937719
0.01260009065432494
0.02936785651570893
-0.04286251950256058
-0.07381839493896179
0.008730606224774787
0.04097630980435939
-0.026094753641176582
-0.06349976979349473
-0.014486300352526125
0.010020434367958173
-0.04286251950256058
-0.06994891050941164
-0.015776128495709512
0.008730606224774787
-0.04157269135937719
-0.053181144648027645
-0.00932698777979259
0.011310262511141556
-0.05189131650484427
-0.053181144648027645
0.02936785651570893
0.06935252895439384
0.026788200229342165
0.002281465508857867
0.042266137947542776
0.06806270081121045
0.024208543942975395
0.0009916373656744832
0.05000510680664308
0.061613560095293535
-0.001588018920692285
-0.032543894357093504
0.010020434367958173
0.02549837208615878
-0.032543894357093504
-0.07381839493896179
-0.04028286321619381
-0.018355784782076275
-0.053181144648027645
-0.07768787936851194
-0.04415234764574396
-0.023515097354809816
-0.07639805122532856
-0.07897770751169533
-0.031254066213910116
-0.015776128495709512
-0.06092011350712795
-0.08026753565487871
-0.02222526921162643
0.017759403227058476
0.007440778081591404
0.13126427982719627
0.3634333456002054
0.5246618634981285
0.5027347850640108
0.4021281898957069
0.26927589114781836
0.1041778888203452
-0.09445564522989594
-0.16152670867543192
-0.1060640985185464
-0.07123873865259503
-0.09961495780262947
-0.12283186437993039
-0.053181144648027645
-0.020935441068443045
-0.09445564522989594
-0.11509289552083009
-0.04673200393211073
-0.013196472209342742
-0.07510822308214518
-0.08671667637079564
-0.036413378786643656
-0.018355784782076275
-0.07381839493896179
-0.08671667637079564
-0.023515097354809816
0.01260009065432494
-0.04415234764574396
-0.06607942607986149
-0.015776128495709512
0.013889918797508324
-0.033833722500276886
-0.053181144648027645
0.017759403227058476
0.039686481661176005
-0.005457503350242437
-0.00932698777979259
0.04613562237709293
0.05903390380892676
0.004861121795224636
-0.001588018920692285
0.08998977924532799
0.1209456546817292
0.0719321852407606
0.06935252895439384
0.13255410797037967
0.15190153011813043
0.09772874810442829
0.09127960738851137
0.15835067083404733
0.16737946783633104
0.09256943553169475
0.05387459123619323
0.10030840439079505
0.07838132595667753
-0.0028778470638756693
-0.02867440992754335
0.01260009065432494
0.026788200229342165
-0.04157269135937719
-0.06736925422304488
-0.024804925497993197
-0.026094753641176582
-0.08413702008442886
-0.09445564522989594
-0.03770320692982704
-0.008037159636609205
-0.04931166021847749
-0.0815573637980621
-0.026094753641176582
-0.02222526921162643
-0.06994891050941164
-0.0647895979366781
-0.0028778470638756693
0.008730606224774787
-0.04673200393211073
-0.07123873865259503
-0.011906644066159357
-0.010616815922975973
-0.059630285363944574
-0.059630285363944574
0.0035712936520412514
0.015179746940691708
-0.059630285363944574
-0.07123873865259503
0.00615094993840802
0.008730606224774787
-0.05189131650484427
-0.050601488361660875
0.011310262511141556
0.015179746940691708
-0.04544217578892734
-0.04931166021847749
0.008730606224774787
0.017759403227058476
-0.04802183207529411
-0.07123873865259503
-0.013196472209342742
0.004861121795224636
-0.04931166021847749
-0.05447097279121103
0.01646957508387509
0.007440778081591404
-0.06092011350712795
-0.06092011350712795
-0.008037159636609205
0.021628887656608628
-0.03770320692982704
-0.053181144648027645
0.0035712936520412514
0.01904923137024186
-0.04157269135937719
-0.053181144648027645
-0.001588018920692285
0.008730606224774787
-0.05189131650484427
-0.05834045722076118
0.008730606224774787
0.0009916373656744832
-0.04286251950256058
-0.04415234764574396
0.020339059513425243
0.03323734094525908
-0.023515097354809816
-0.04028286321619381
0.01904923137024186
0.039686481661176005
-0.024804925497993197
-0.027384581784359964
0.0319475128020757
0.051294934949826454
-0.005457503350242437
-0.005457503350242437
0.05645424752256
0.05903390380892676
0.002281465508857867
0.015179746940691708
0.09256943553169475
0.09127960738851137
0.020339059513425243
-0.00932698777979259
0.04613562237709293
0.0487152786634597
-0.00932698777979259
-0.018355784782076275
0.03323734094525908
0.013889918797508324
-0.032543894357093504
-0.053181144648027645
0.010020434367958173
0.01904923137024186
-0.02867440992754335
-0.04028286321619381
0.008730606224774787
0.038396653517992624
-0.02867440992754335
-0.03899303507301042
0.034527169088442465
0.038396653517992624
-0.014486300352526125
0.0009916373656744832
0.1377134205431132
0.318289360588787
0.43566372161847494
0.5427194575026958
0.6007617239459481
0.46403994076850935
0.16222015526359748
-0.033833722500276886
-0.0647895979366781
-0.059630285363944574
-0.08800650451397901
-0.06220994165031133
0.008730606224774787
0.002281465508857867
-0.05189131650484427
-0.05576080093439442
-0.0028778470638756693
0.004861121795224636
-0.05834045722076118
-0.06865908236622825
-0.010616815922975973
-0.008037159636609205
-0.06994891050941164
-0.0725285667957784
0.0035712936520412514
-0.001588018920692285
-0.06092011350712795
-0.05576080093439442
0.008730606224774787
0.007440778081591404
-0.05834045722076118
-0.04286251950256058
0.02807802837252555
0.037106825374809235
-0.032543894357093504
-0.02867440992754335
0.038396653517992624
0.051294934949826454
0.020339059513425243
0.026788200229342165
0.09772874810442829
0.10804737324989536
0.05387459123619323
0.07064235709757723
0.13642359239992982
0.15061170197494703
0.09127960738851137
0.08998977924532799
0.1531913582613138
0.14416256125903013
0.09772874810442829
0.09127960738851137
0.13255410797037967
0.12868462354082952
0.042266137947542776
0.013889918797508324
0.05387459123619323
0.035816997231625854
-0.04415234764574396
-0.06349976979349473
-0.005457503350242437
-0.013196472209342742
-0.09445564522989594
-0.10348444223217963
-0.036413378786643656
-0.04286251950256058
-0.09445564522989594
-0.10477427037536301
-0.03512355064346027
-0.03512355064346027
-0.11251323923446331
-0.09832512965944609
-0.032543894357093504
-0.04028286321619381
-0.11122341109127994
-0.10993358294809655
-0.0570506290775778
-0.053181144648027645
-0.10477427037536301
-0.09445564522989594
-0.032543894357093504
-0.032543894357093504
-0.09058616080034579
-0.09445564522989594
-0.032543894357093504
-0.04028286321619381
-0.09832512965944609
-0.08542684822761225
-0.015776128495709512
-0.015776128495709512
-0.07381839493896179
-0.08026753565487871
-0.008037159636609205
-0.011906644066159357
-0.07381839493896179
-0.07510822308214518
-0.014486300352526125
-0.02222526921162643
-0.08542684822761225
-0.08800650451397901
-0.011906644066159357
-0.011906644066159357
-0.07510822308214518
-0.07768787936851194
-0.026094753641176582
-0.024804925497993197
-0.08413702008442886
-0.06092011350712795
0.00615094993840802
-0.0028778470638756693
-0.06349976979349473
-0.06349976979349473
0.008730606224774787
0.008730606224774787
-0.04673200393211073
-0.04931166021847749
0.01646957508387509
0.00615094993840802
-0.0647895979366781
-0.05576080093439442
0.01260009065432494
0.01260009065432494
-0.033833722500276886
-0.03899303507301042
0.015179746940691708
0.00615094993840802
-0.05189131650484427
-0.04802183207529411
0.01260009065432494
0.00615094993840802
-0.06220994165031133
-0.04931166021847749
0.026788200229342165
0.017759403227058476
-0.04286251950256058
-0.033833722500276886
0.03323734094525908
0.024208543942975395
-0.04544217578892734
-0.031254066213910116
0.02936785651570893
0.030657684658892317
-0.04286251950256058
-0.031254066213910116
0.02549837208615878
0.01904923137024186
-0.029964238070726734
-0.02222526921162643
0.035816997231625854
0.017759403227058476
-0.032543894357093504
0.002281465508857867
0.06032373195211015
0.051294934949826454
-0.001588018920692285
0.008730606224774787
0.07709149781349414
0.0641932163816603
0.01904923137024186
0.02936785651570893
0.09256943553169475
0.06935252895439384
0.0035712936520412514
0.007440778081591404
0.04613562237709293
0.03323734094525908
-0.032543894357093504
-0.029964238070726734
0.03323734094525908
0.01260009065432494
-0.04931166021847749
-0.04415234764574396
0.024208543942975395
0.011310262511141556
-0.059630285363944574
-0.04286251950256058
0.02549837208615878
0.021628887656608628
-0.036413378786643656
-0.015776128495709512
0.10030840439079505
0.20349465584546578
0.31441987615923683
0.48080770662989336
0.6110803490914152
0.5169228946390282
0.2602470941455347
0.06290338823847691
-0.008037159636609205
-0.08026753565487871
-0.1357301458117642
-0.09445564522989594
-0.023515097354809816
-0.04544217578892734
-0.1060640985185464
-0.07381839493896179
-0.011906644066159357
-0.036413378786643656
-0.11122341109127994
-0.0892963326571624
-0.02867440992754335
-0.024804925497993197
-0.07381839493896179
-0.0647895979366781
-0.013196472209342742
-0.027384581784359964
-0.09187598894352916
-0.06349976979349473
-0.0028778470638756693
-0.026094753641176582
-0.08413702008442886
-0.0725285667957784
-0.023515097354809816
-0.029964238070726734
-0.07381839493896179
-0.053181144648027645
0.008730606224774787
0.01260009065432494
-0.032543894357093504
-0.023515097354809816
0.04742545052027631
0.05000510680664308
0.004861121795224636
0.038396653517992624
0.1054677169635286
0.09127960738851137
0.037106825374809235
0.0641932163816603
0.13642359239992982
0.1132066858226289
0.0641932163816603
0.09256943553169475
0.13900324868629657
0.10030840439079505
0.007440778081591404
0.01260009065432494
0.0641932163816603
0.013889918797508324
-0.05834045722076118
-0.05447097279121103
-0.020935441068443045
-0.05576080093439442
-0.10864375480491316
-0.09445564522989594
-0.04673200393211073
-0.06994891050941164
-0.121542036236747
-0.09187598894352916
-0.033833722500276886
-0.06349976979349473
-0.11896237995038024
-0.09187598894352916
-0.053181144648027645
-0.0725285667957784
-0.12670134880948056
-0.09832512965944609
-0.033833722500276886
-0.0647895979366781
-0.11509289552083009
-0.09445564522989594
-0.04157269135937719
-0.059630285363944574
-0.10864375480491316
-0.07639805122532856
-0.018355784782076275
-0.04286251950256058
-0.1060640985185464
-0.06865908236622825
-0.0028778470638756693
-0.027384581784359964
-0.07381839493896179
-0.020935441068443045
0.01260009065432494
-0.03512355064346027
-0.08026753565487871
-0.04931166021847749
0.0035712936520412514
-0.019645612925259664
-0.07768787936851194
-0.06092011350712795
-0.011906644066159357
-0.032543894357093504
-0.08413702008442886
-0.05447097279121103
0.007440778081591404
-0.031254066213910116
-0.08800650451397901
-0.06736925422304488
-0.008037159636609205
-0.03512355064346027
-0.09445564522989594
-0.06994891050941164
-0.013196472209342742
-0.026094753641176582
-0.08026753565487871
-0.04286251950256058
0.011310262511141556
-0.011906644066159357
-0.06994891050941164
-0.05447097279121103
-0.004167675207059053
-0.031254066213910116
-0.07768787936851194
-0.05447097279121103
0.0035712936520412514
-0.013196472209342742
-0.0725285667957784
-0.05189131650484427
0.004861121795224636
-0.031254066213910116
-0.06092011350712795
-0.023515097354809816
0.039686481661176005
0.010020434367958173
-0.026094753641176582
0.0035712936520412514
0.06935252895439384
0.01646957508387509
-0.018355784782076275
-0.00932698777979259
0.07967115409986092
0.04742545052027631
-0.015776128495709512
-0.0002981907775089009
0.05258476309300985
0.02936785651570893
-0.06736925422304488
-0.04286251950256058
-0.00932698777979259
-0.04028286321619381
-0.07381839493896179
-0.03512355064346027
0.015179746940691708
-0.015776128495709512
-0.0970353015162627
-0.04931166021847749
-0.018355784782076275
-0.00932698777979259
-0.07897770751169533
-0.04544217578892734
0.017759403227058476
0.0035712936520412514
-0.014486300352526125
0.14803204568858028
0.3802011114615894
0.47951787848670996
0.4691992533412429
0.46661959705487616
0.35956386117065525
0.10288806067716182
-0.08413702008442886
-0.11509289552083009
-0.0725285667957784
-0.0892963326571624
-0.121542036236747
-0.08800650451397901
-0.032543894357093504
-0.05189131650484427
-0.09445564522989594
-0.06736925422304488
-0.024804925497993197
-0.04286251950256058
-0.09187598894352916
-0.06349976979349473
-0.010616815922975973
-0.053181144648027645
-0.09832512965944609
-0.04157269135937719
0.007440778081591404
-0.032543894357093504
-0.06349976979349473
-0.04673200393211073
-0.015776128495709512
-0.04286251950256058
-0.06994891050941164
-0.029964238070726734
0.008730606224774787
0.0009916373656744832
-0.05576080093439442
-0.029964238070726734
0.030657684658892317
0.004861121795224636
-0.036413378786643656
0.02936785651570893
0.10030840439079505
0.07967115409986092
0.037106825374809235
0.07064235709757723
0.13126427982719627
0.09514909181806153
0.039686481661176005
0.07451184152712738
0.14287273311584672
0.10159823253397844
0.038396653517992624
0.05903390380892676
0.10030840439079505
0.0487152786634597
-0.011906644066159357
0.002281465508857867
0.037106825374809235
0.002281465508857867
-0.06607942607986149
-0.050601488361660875
-0.005457503350242437
-0.03899303507301042
-0.10090478594581286
-0.07510822308214518
-0.031254066213910116
-0.04673200393211073
-0.10864375480491316
-0.07768787936851194
-0.018355784782076275
-0.053181144648027645
-0.1060640985185464
-0.08800650451397901
-0.033833722500276886
-0.05576080093439442
-0.10348444223217963
-0.0647895979366781
-0.018355784782076275
-0.05447097279121103
-0.10735392666172978
-0.06865908236622825
-0.011906644066159357
-0.032543894357093504
-0.07510822308214518
-0.03899303507301042
0.021628887656608628
-0.018355784782076275
-0.08026753565487871
-0.05576080093439442
0.00615094993840802
-0.019645612925259664
-0.06736925422304488
-0.04673200393211073
-0.005457503350242437
-0.032543894357093504
-0.07381839493896179
-0.033833722500276886
0.020339059513425243
-0.0028778470638756693
-0.04157269135937719
-0.011906644066159357
0.026788200229342165
0.008730606224774787
-0.04157269135937719
-0.011906644066159357
0.039686481661176005
0.008730606224774787
-0.031254066213910116
0.0009916373656744832
0.04613562237709293
0.01260009065432494
-0.014486300352526125
0.022918715799792013
0.061613560095293535
0.038396653517992624
0.01646957508387509
0.039686481661176005
0.10933720139307875
0.07709149781349414
0.02549837208615878
0.06677287266802706
0.10030840439079505
0.035816997231625854
-0.010616815922975973
0.017759403227058476
0.06032373195211015
0.010020434367958173
-0.04286251950256058
-0.011906644066159357
0.022918715799792013
-0.019645612925259664
-0.0570506290775778
-0.023515097354809816
0.02936785651570893
-0.00932698777979259
-0.059630285363944574
-0.029964238070726734
0.021628887656608628
-0.013196472209342742
-0.053181144648027645
-0.0028778470638756693
0.06032373195211015
0.09127960738851137
0.1944658588431821
0.38407059589113957
0.5620668796504465
0.5530380826481628
0.4098671587548072
0.25508778157280115
0.1054677169635286
-0.0570506290775778
-0.13444031766858086
-0.09445564522989594
-0.026094753641176582
-0.04931166021847749
-0.07639805122532856
-0.032543894357093504
0.015179746940691708
-0.027384581784359964
-0.07768787936851194
-0.029964238070726734
0.015179746940691708
-0.026094753641176582
-0.08284719194124548
-0.04286251950256058
-0.0028778470638756693
-0.036413378786643656
-0.07768787936851194
-0.031254066213910116
0.039686481661176005
-0.0028778470638756693
-0.0647895979366781
-0.032543894357093504
0.022918715799792013
-0.001588018920692285
-0.032543894357093504
0.017759403227058476
0.061613560095293535
0.035816997231625854
-0.006747331493425821
0.0487152786634597
0.0719321852407606
0.05000510680664308
0.03323734094525908
0.08741012295896122
0.13384393611356304
0.08998977924532799
0.05387459123619323
0.1132066858226289
0.1531913582613138
0.12352531096809596
0.08998977924532799
0.1132066858226289
0.13513376425674642
0.07064235709757723
0.02936785651570893
0.061613560095293535
0.0886999511021446
0.038396653517992624
-0.032543894357093504
-0.013196472209342742
0.020339059513425243
-0.03770320692982704
-0.07639805122532856
-0.04415234764574396
-0.029964238070726734
-0.06349976979349473
-0.10219461408899624
-0.07381839493896179
-0.036413378786643656
-0.09187598894352916
-0.13444031766858086
-0.0570506290775778
-0.018355784782076275
-0.06994891050941164
-0.11896237995038024
-0.0647895979366781
-0.026094753641176582
-0.07381839493896179
-0.11509289552083009
-0.05576080093439442
-0.019645612925259664
-0.07639805122532856
-0.10864375480491316
-0.03770320692982704
-0.004167675207059053
-0.07381839493896179
-0.10735392666172978
-0.05189131650484427
0.002281465508857867
-0.04673200393211073
-0.08413702008442886
-0.033833722500276886
0.002281465508857867
-0.053181144648027645
-0.0815573637980621
-0.004167675207059053
0.02807802837252555
-0.032543894357093504
-0.09316581708671255
-0.04415234764574396
0.008730606224774787
-0.032543894357093504
-0.08542684822761225
-0.027384581784359964
0.01646957508387509
-0.032543894357093504
-0.07381839493896179
-0.023515097354809816
0.007440778081591404
-0.050601488361660875
-0.07123873865259503
-0.013196472209342742
0.02936785651570893
0.0009916373656744832
-0.03512355064346027
0.015179746940691708
0.06032373195211015
0.008730606224774787
-0.026094753641176582
0.01904923137024186
0.06935252895439384
0.02549837208615878
-0.032543894357093504
0.020339059513425243
0.05387459123619323
-0.015776128495709512
-0.0725285667957784
-0.032543894357093504
-0.004167675207059053
-0.050601488361660875
-0.07381839493896179
-0.02222526921162643
-0.0028778470638756693
-0.059630285363944574
-0.07897770751169533
-0.023515097354809816
0.017759403227058476
-0.019645612925259664
-0.0647895979366781
-0.029964238070726734
0.007440778081591404
-0.015776128495709512
0.021628887656608628
0.19704551512954885
0.3802011114615894
0.47951787848670996
0.48983650363217707
0.4782280503435266
0.31441987615923683
0.039686481661176005
-0.11509289552083009
-0.11638272366401346
-0.07381839493896179
-0.10993358294809655
-0.1357301458117642
-0.07510822308214518
-0.032543894357093504
-0.09058616080034579
-0.11767255180719685
-0.05189131650484427
-0.020935441068443045
-0.07510822308214518
-0.11122341109127994
-0.05576080093439442
-0.011906644066159357
-0.06994891050941164
-0.1060640985185464
-0.053181144648027645
-0.015776128495709512
-0.0647895979366781
-0.10348444223217963
-0.04415234764574396
0.002281465508857867
-0.03899303507301042
-0.06865908236622825
-0.018355784782076275
0.022918715799792013
-0.023515097354809816
-0.04931166021847749
0.004861121795224636
0.04484579423390954
0.00615094993840802
0.0035712936520412514
0.05258476309300985
0.10030840439079505
0.042266137947542776
0.01260009065432494
0.09127960738851137
0.13255410797037967
0.061613560095293535
0.017759403227058476
0.07580166967031077
0.13255410797037967
0.07967115409986092
0.02807802837252555
0.05387459123619323
0.07451184152712738
-0.0028778470638756693
-0.04286251950256058
-0.010616815922975973
-0.001588018920692285
-0.053181144648027645
-0.09058616080034579
-0.04931166021847749
-0.015776128495709512
-0.07381839493896179
-0.11122341109127994
-0.0725285667957784
-0.020935441068443045
-0.059630285363944574
-0.0892963326571624
-0.03512355064346027
-0.006747331493425821
-0.06349976979349473
-0.09445564522989594
-0.04286251950256058
-0.004167675207059053
-0.04931166021847749
-0.09316581708671255
-0.04028286321619381
-0.011906644066159357
-0.0570506290775778
-0.08026753565487871
-0.032543894357093504
0.007440778081591404
-0.03512355064346027
-0.06220994165031133
-0.010616815922975973
0.020339059513425243
-0.05189131650484427
-0.08284719194124548
-0.020935441068443045
0.011310262511141556
-0.04028286321619381
-0.07381839493896179
-0.032543894357093504
0.017759403227058476
-0.032543894357093504
-0.0647895979366781
-0.011906644066159357
-0.005457503350242437
-0.04415234764574396
-0.04544217578892734
-0.0028778470638756693
0.008730606224774787
-0.036413378786643656
-0.05576080093439442
-0.011906644066159357
-0.0002981907775089009
-0.04544217578892734
-0.07381839493896179
-0.0028778470638756693
0.013889918797508324
-0.05189131650484427
-0.0647895979366781
-0.0002981907775089009
0.030657684658892317
-0.010616815922975973
-0.026094753641176582
0.034527169088442465
0.061613560095293535
0.008730606224774787
-0.026094753641176582
0.030657684658892317
0.06548304452484369
0.0319475128020757
-0.02867440992754335
0.020339059513425243
0.024208543942975395
-0.032543894357093504
-0.06092011350712795
-0.020935441068443045
0.0009916373656744832
-0.06092011350712795
-0.08026753565487871
-0.024804925497993197
-0.018355784782076275
-0.08026753565487871
-0.09058616080034579
-0.033833722500276886
-0.008037159636609205
-0.06220994165031133
-0.08542684822761225
-0.032543894357093504
-0.004167675207059053
-0.032543894357093504
0.03323734094525908
0.2499284690000676
0.42534509647300783
0.4846771910594435
0.4937059880617272
0.44211286233439184
0.22800139056595006
-0.010616815922975973
-0.1357301458117642
-0.11638272366401346
-0.08413702008442886
-0.11509289552083009
-0.12541152066629715
-0.07381839493896179
-0.04931166021847749
-0.10348444223217963
-0.121542036236747
-0.053181144648027645
-0.031254066213910116
-0.08542684822761225
-0.11509289552083009
-0.04544217578892734
-0.018355784782076275
-0.07381839493896179
-0.09445564522989594
-0.03899303507301042
-0.011906644066159357
-0.06220994165031133
-0.09832512965944609
-0.032543894357093504
0.002281465508857867
-0.050601488361660875
-0.06736925422304488
-0.00932698777979259
0.004861121795224636
-0.04157269135937719
-0.04415234764574396
0.021628887656608628
0.06032373195211015
-0.001588018920692285
-0.004167675207059053
0.061613560095293535
0.08483046667259445
0.04355596609072616
0.051294934949826454
0.11578634210899566
0.13642359239992982
0.10030840439079505
0.07967115409986092
0.14674221754539687
0.1609303271204141
0.09514909181806153
0.05645424752256
0.10933720139307875
0.1209456546817292
0.035816997231625854
-0.0028778470638756693
0.03323734094525908
0.038396653517992624
-0.029964238070726734
-0.06092011350712795
-0.010616815922975973
0.004861121795224636
-0.050601488361660875
-0.07510822308214518
-0.02867440992754335
-0.008037159636609205
-0.0647895979366781
-0.09316581708671255
-0.031254066213910116
-0.011906644066159357
-0.07123873865259503
-0.08800650451397901
-0.008037159636609205
0.004861121795224636
-0.06092011350712795
-0.08026753565487871
-0.023515097354809816
-0.015776128495709512
-0.07381839493896179
-0.0970353015162627
-0.03512355064346027
0.0009916373656744832
-0.050601488361660875
-0.07897770751169533
-0.020935441068443045
-0.0028778470638756693
-0.0647895979366781
-0.08026753565487871
-0.011906644066159357
0.004861121795224636
-0.053181144648027645
-0.0647895979366781
0.002281465508857867
0.022918715799792013
-0.04157269135937719
-0.06736925422304488
-0.0028778470638756693
0.02807802837252555
-0.023515097354809816
-0.032543894357093504
0.011310262511141556
0.017759403227058476
-0.032543894357093504
-0.04415234764574396
0.020339059513425243
0.0319475128020757
-0.04157269135937719
-0.04673200393211073
0.021628887656608628
0.0319475128020757
-0.031254066213910116
-0.0570506290775778
0.015179746940691708
0.017759403227058476
-0.04802183207529411
-0.059630285363944574
0.002281465508857867
0.017759403227058476
-0.032543894357093504
-0.05189131650484427
-0.00932698777979259
-0.0002981907775089009
-0.05189131650484427
-0.05189131650484427
0.01646957508387509
0.020339059513425243
-0.033833722500276886
-0.053181144648027645
0.017759403227058476
0.026788200229342165
-0.050601488361660875
-0.05576080093439442
0.015179746940691708
0.02807802837252555
-0.029964238070726734
-0.032543894357093504
0.04613562237709293
0.06935252895439384
-0.010616815922975973
-0.010616815922975973
0.0641932163816603
0.07967115409986092
0.011310262511141556
-0.008037159636609205
0.051294934949826454
0.05774407566574338
-0.024804925497993197
-0.03512355064346027
0.015179746940691708
0.010020434367958173
-0.04028286321619381
-0.05834045722076118
-0.0002981907775089009
0.008730606224774787
-0.04286251950256058
-0.04415234764574396
0.020339059513425243
0.022918715799792013
-0.05189131650484427
-0.08026753565487871
0.01260009065432494
-0.008037159636609205
-0.06092011350712795
-0.05189131650484427
0.11191685767944551
0.3041012510137697
0.4021281898957069
0.5646465359368132
0.6046312083754982
0.47177890962760965
0.16737946783633104
-0.001588018920692285
-0.04157269135937719
-0.05834045722076118
-0.09187598894352916
-0.07768787936851194
-0.010616815922975973
-0.00932698777979259
-0.07768787936851194
-0.08671667637079564
-0.018355784782076275
-0.0028778470638756693
-0.08026753565487871
-0.11251323923446331
-0.04286251950256058
-0.02867440992754335
-0.1060640985185464
-0.09832512965944609
-0.011906644066159357
-0.019645612925259664
-0.07381839493896179
-0.07510822308214518
0.0487152786634597
0.0009916373656744832
-0.05447097279121103
-0.05189131650484427
-0.004167675207059053
0.0719321852407606
-0.00932698777979259
-0.07510822308214518
0.02807802837252555
0.035816997231625854
-0.04673200393211073
-0.011906644066159357
0.06677287266802706
0.09256943553169475
0.034527169088442465
0.04097630980435939
0.10804737324989536
0.11191685767944551
0.05000510680664308
0.07322201338394399
0.13255410797037967
0.12610496725446274
0.06548304452484369
0.05387459123619323
0.1054677169635286
0.09901857624761168
0.02807802837252555
-0.0028778470638756693
0.05000510680664308
0.038396653517992624
-0.053181144648027645
-0.08026753565487871
-0.036413378786643656
-0.03770320692982704
-0.10090478594581286
-0.10348444223217963
-0.04931166021847749
-0.053181144648027645
-0.121542036236747
-0.12283186437993039
-0.06607942607986149
-0.06220994165031133
-0.10993358294809655
-0.11122341109127994
-0.053181144648027645
-0.050601488361660875
-0.10993358294809655
-0.10735392666172978
-0.05447097279121103
-0.053181144648027645
-0.10735392666172978
-0.11767255180719685
-0.04673200393211073
-0.031254066213910116
-0.07768787936851194
-0.07639805122532856
-0.011906644066159357
-0.014486300352526125
-0.1060640985185464
-0.09187598894352916
-0.018355784782076275
-0.004167675207059053
-0.08671667637079564
-0.07639805122532856
-0.00932698777979259
0.004861121795224636
-0.06220994165031133
-0.07381839493896179
-0.010616815922975973
0.00615094993840802
-0.053181144648027645
-0.04415234764574396
0.01646957508387509
0.004861121795224636
-0.04931166021847749
-0.04673200393211073
0.021628887656608628
0.022918715799792013
-0.04157269135937719
-0.05576080093439442
0.01260009065432494
0.01646957508387509
-0.033833722500276886
-0.033833722500276886
0.01646957508387509
0.004861121795224636
-0.06349976979349473
-0.059630285363944574
0.015179746940691708
0.01904923137024186
-0.04157269135937719
-0.032543894357093504
0.02549837208615878
0.020339059513425243
-0.03512355064346027
-0.05576080093439442
0.010020434367958173
0.022918715799792013
-0.032543894357093504
-0.03770320692982704
0.017759403227058476
0.007440778081591404
-0.0647895979366781
-0.05447097279121103
0.022918715799792013
0.02936785651570893
-0.04415234764574396
-0.026094753641176582
0.037106825374809235
0.022918715799792013
-0.04157269135937719
-0.04286251950256058
0.01646957508387509
0.020339059513425243
-0.036413378786643656
-0.031254066213910116
0.02936785651570893
0.0319475128020757
-0.033833722500276886
-0.026094753641176582
0.04613562237709293
0.06032373195211015
0.007440778081591404
-0.0028778470638756693
0.05645424752256
0.04484579423390954
-0.02222526921162643
-0.02867440992754335
0.02936785651570893
0.002281465508857867
-0.06349976979349473
-0.05447097279121103
0.0009916373656744832
-0.008037159636609205
-0.06349976979349473
-0.053181144648027645
0.00615094993840802
-0.0002981907775089009
-0.0725285667957784
-0.06607942607986149
-0.008037159636609205
-0.0028778470638756693
-0.06607942607986149
-0.06349976979349473
0.017759403227058476
0.06677287266802706
0.15964049897723073
0.3479554078820048
0.5698058485095469
0.5943125832300312
0.4446925186207586
0.2447691564273341
0.10288806067716182
-0.036413378786643656
-0.1434691146708645
-0.11767255180719685
-0.03512355064346027
-0.026094753641176582
-0.08671667637079564
-0.08542684822761225
-0.020935441068443045
-0.02867440992754335
-0.07381839493896179
-0.06349976979349473
-0.008037159636609205
-0.024804925497993197
-0.07768787936851194
-0.06607942607986149
-0.001588018920692285
-0.0028778470638756693
-0.07381839493896179
-0.06349976979349473
-0.008037159636609205
-0.010616815922975973
-0.059630285363944574
-0.04286251950256058
0.0035712936520412514
-0.001588018920692285
-0.0570506290775778
-0.032543894357093504
0.04097630980435939
0.02549837208615878
-0.036413378786643656
-0.011906644066159357
0.06290338823847691
0.06032373195211015
0.002281465508857867
0.034527169088442465
0.1132066858226289
0.11062702953626212
0.05000510680664308
0.07451184152712738
0.1454523894022135
0.13255410797037967
0.06806270081121045
0.08741012295896122
0.13255410797037967
0.1299744516840129
0.05774407566574338
0.04484579423390954
0.08741012295896122
0.04742545052027631
-0.033833722500276886
-0.04415234764574396
-0.0028778470638756693
-0.015776128495709512
-0.08284719194124548
-0.07639805122532856
-0.032543894357093504
-0.05447097279121103
-0.11509289552083009
-0.12283186437993039
-0.0647895979366781
-0.08284719194124548
-0.14475894281404791
-0.1279911769526639
-0.07381839493896179
-0.07510822308214518
-0.1292810050958473
-0.13444031766858086
-0.0647895979366781
-0.06220994165031133
-0.13315048952539746
-0.11638272366401346
-0.06607942607986149
-0.08284719194124548
-0.13315048952539746
-0.10864375480491316
-0.04286251950256058
-0.04286251950256058
-0.10864375480491316
-0.09316581708671255
-0.036413378786643656
-0.03899303507301042
-0.08800650451397901
-0.08800650451397901
-0.027384581784359964
-0.032543894357093504
-0.08800650451397901
-0.07510822308214518
-0.019645612925259664
-0.011906644066159357
-0.06607942607986149
-0.06220994165031133
-0.0028778470638756693
-0.011906644066159357
-0.07510822308214518
-0.06736925422304488
-0.013196472209342742
-0.015776128495709512
-0.07381839493896179
-0.06994891050941164
-0.010616815922975973
-0.018355784782076275
-0.07381839493896179
-0.0570506290775778
-0.0002981907775089009
-0.011906644066159357
-0.06349976979349473
-0.04157269135937719
0.022918715799792013
-0.0002981907775089009
-0.06607942607986149
-0.050601488361660875
0.01260009065432494
-0.0002981907775089009
-0.053181144648027645
-0.024804925497993197
0.022918715799792013
0.008730606224774787
-0.04802183207529411
-0.024804925497993197
0.022918715799792013
0.008730606224774787
-0.04415234764574396
-0.026094753641176582
0.039686481661176005
0.030657684658892317
-0.032543894357093504
-0.013196472209342742
0.03323734094525908
0.01646957508387509
-0.023515097354809816
-0.005457503350242437
0.05645424752256
0.022918715799792013
-0.04286251950256058
-0.015776128495709512
0.051294934949826454
0.03323734094525908
-0.02222526921162643
-0.010616815922975973
0.05000510680664308
0.039686481661176005
-0.005457503350242437
0.010020434367958173
0.061613560095293535
0.05387459123619323
0.007440778081591404
0.03323734094525908
0.0964389199612449
0.07064235709757723
0.004861121795224636
0.02807802837252555
0.06806270081121045
0.03323734094525908
-0.02867440992754335
-0.0028778470638756693
0.05000510680664308
0.022918715799792013
-0.03512355064346027
-0.020935441068443045
0.035816997231625854
0.017759403227058476
-0.03899303507301042
-0.019645612925259664
0.034527169088442465
0.013889918797508324
-0.04157269135937719
-0.014486300352526125
0.038396653517992624
0.038396653517992624
0.07322201338394399
0.2654064067182682
0.513053410209478
0.5981820676595814
0.5001551287776441
0.36859265817293896
0.19833534327273225
-0.005457503350242437
-0.1357301458117642
-0.121542036236747
-0.033833722500276886
-0.036413378786643656
-0.08026753565487871
-0.0570506290775778
-0.013196472209342742
-0.020935441068443045
-0.08026753565487871
-0.0570506290775778
-0.008037159636609205
-0.023515097354809816
-0.07381839493896179
-0.04028286321619381
0.020339059513425243
-0.015776128495709512
-0.06607942607986149
-0.032543894357093504
0.026788200229342165
0.0009916373656744832
-0.06092011350712795
-0.04157269135937719
0.01646957508387509
0.020339059513425243
-0.036413378786643656
-0.004167675207059053
0.05903390380892676
0.039686481661176005
-0.023515097354809816
0.007440778081591404
0.07064235709757723
0.0641932163816603
0.004861121795224636
0.05000510680664308
0.1299744516840129
0.11191685767944551
0.05774407566574338
0.09772874810442829
0.15706084269086396
0.14158290497266335
0.0886999511021446
0.10804737324989536
0.15577101454768058
0.13900324868629657
0.07064235709757723
0.08741012295896122
0.11836599839536244
0.06677287266802706
-0.010616815922975973
-0.005457503350242437
0.026788200229342165
-0.013196472209342742
-0.10090478594581286
-0.07510822308214518
-0.017065956638892894
-0.04931166021847749
-0.1060640985185464
-0.07123873865259503
-0.013196472209342742
-0.059630285363944574
-0.10864375480491316
-0.07510822308214518
-0.020935441068443045
-0.050601488361660875
-0.11509289552083009
-0.0815573637980621
-0.04157269135937719
-0.053181144648027645
-0.09832512965944609
-0.06220994165031133
-0.026094753641176582
-0.05189131650484427
-0.09445564522989594
-0.04415234764574396
-0.005457503350242437
-0.04931166021847749
-0.10735392666172978
-0.0647895979366781
-0.014486300352526125
-0.04544217578892734
-0.09445564522989594
-0.06092011350712795
-0.0028778470638756693
-0.02867440992754335
-0.09832512965944609
-0.07381839493896179
-0.02867440992754335
-0.032543894357093504
-0.07381839493896179
-0.05834045722076118
-0.014486300352526125
-0.04544217578892734
-0.10090478594581286
-0.06994891050941164
-0.00932698777979259
-0.036413378786643656
-0.10348444223217963
-0.06092011350712795
0.002281465508857867
-0.04028286321619381
-0.09574547337307932
-0.059630285363944574
-0.0002981907775089009
-0.018355784782076275
-0.07123873865259503
-0.032543894357093504
0.020339059513425243
-0.00932698777979259
-0.059630285363944574
-0.032543894357093504
0.022918715799792013
-0.001588018920692285
-0.05189131650484427
-0.032543894357093504
0.037106825374809235
0.017759403227058476
-0.03512355064346027
-0.015776128495709512
0.022918715799792013
0.008730606224774787
-0.04028286321619381
-0.011906644066159357
0.042266137947542776
0.008730606224774787
-0.03899303507301042
-0.010616815922975973
0.02936785651570893
0.008730606224774787
-0.029964238070726734
0.007440778081591404
0.051294934949826454
0.02807802837252555
-0.014486300352526125
0.017759403227058476
0.07064235709757723
0.05387459123619323
0.004861121795224636
0.04613562237709293
0.11191685767944551
0.07967115409986092
0.008730606224774787
0.020339059513425243
0.05000510680664308
-0.0002981907775089009
-0.033833722500276886
-0.00932698777979259
0.026788200229342165
-0.018355784782076275
-0.06092011350712795
-0.033833722500276886
0.008730606224774787
-0.013196472209342742
-0.050601488361660875
-0.011906644066159357
0.038396653517992624
-0.011906644066159357
-0.059630285363944574
-0.013196472209342742
0.035816997231625854
0.013889918797508324
0.02936785651570893
0.22284207799321654
0.44082303419120844
0.5362703167867789
0.49757547249127737
0.42792475275937464
0.27701486000691866
0.05000510680664308
-0.09961495780262947
-0.09445564522989594
-0.033833722500276886
-0.053181144648027645
-0.11122341109127994
-0.07381839493896179
0.0009916373656744832
-0.015776128495709512
-0.0647895979366781
-0.029964238070726734
0.021628887656608628
-0.032543894357093504
-0.09187598894352916
-0.05834045722076118
0.008730606224774787
-0.011906644066159357
-0.059630285363944574
-0.02222526921162643
0.017759403227058476
-0.006747331493425821
-0.04415234764574396
-0.015776128495709512
0.0035712936520412514
-0.018355784782076275
-0.033833722500276886
-0.0028778470638756693
0.04097630980435939
-0.0002981907775089009
-0.04028286321619381
0.00615094993840802
0.0641932163816603
0.038396653517992624
0.007440778081591404
0.04097630980435939
0.09385926367487814
0.06032373195211015
0.02936785651570893
0.07967115409986092
0.12868462354082952
0.09256943553169475
0.04355596609072616
0.0886999511021446
0.12481513911127935
0.09127960738851137
0.04097630980435939
0.06806270081121045
0.09901857624761168
0.0487152786634597
-0.010616815922975973
0.004861121795224636
0.03323734094525908
-0.023515097354809816
-0.07381839493896179
-0.04544217578892734
-0.010616815922975973
-0.04673200393211073
-0.09187598894352916
-0.04931166021847749
-0.013196472209342742
-0.05834045722076118
-0.09445564522989594
-0.06349976979349473
-0.018355784782076275
-0.05447097279121103
-0.10219461408899624
-0.06349976979349473
-0.015776128495709512
-0.05576080093439442
-0.09316581708671255
-0.03899303507301042
0.013889918797508324
-0.032543894357093504
-0.07768787936851194
-0.032543894357093504
0.002281465508857867
-0.02867440992754335
-0.06994891050941164
-0.033833722500276886
0.01646957508387509
-0.026094753641176582
-0.08026753565487871
-0.03512355064346027
0.026788200229342165
-0.011906644066159357
-0.06349976979349473
-0.036413378786643656
0.01904923137024186
-0.023515097354809816
-0.06994891050941164
-0.011906644066159357
0.022918715799792013
0.008730606224774787
-0.05447097279121103
-0.026094753641176582
0.010020434367958173
-0.004167675207059053
-0.06736925422304488
-0.024804925497993197
0.01904923137024186
-0.005457503350242437
-0.03899303507301042
0.002281465508857867
0.0487152786634597
-0.001588018920692285
-0.04415234764574396
-0.005457503350242437
0.051294934949826454
0.026788200229342165
-0.018355784782076275
0.030657684658892317
0.11062702953626212
0.0487152786634597
0.008730606224774787
0.04355596609072616
0.051294934949826454
0.042266137947542776
-0.02867440992754335
0.007440778081591404
0.04355596609072616
-0.0028778470638756693
-0.032543894357093504
-0.031254066213910116
0.0641932163816603
-0.031254066213910116
-0.07381839493896179
-0.017065956638892894
-0.010616815922975973
-0.011906644066159357
-0.06220994165031133
-0.017065956638892894
0.01904923137024186
-0.033833722500276886
-0.08284719194124548
-0.013196472209342742
0.12223548282491259
0.2499284690000676
0.3711723144593057
0.5246618634981285
0.573675332939097
0.3943892210366066
0.13900324868629657
0.038396653517992624
-0.017065956638892894
-0.10735392666172978
-0.13315048952539746
-0.0647895979366781
-0.010616815922975973
-0.053181144648027645
-0.08800650451397901
-0.04544217578892734
-0.019645612925259664
-0.05189131650484427
-0.0815573637980621
-0.04673200393211073
-0.015776128495709512
-0.059630285363944574
-0.09574547337307932
-0.04673200393211073
0.0009916373656744832
-0.032543894357093504
-0.07510822308214518
-0.032543894357093504
0.015179746940691708
-0.031254066213910116
-0.06736925422304488
-0.018355784782076275
0.01904923137024186
-0.02867440992754335
-0.06994891050941164
-0.010616815922975973
0.035816997231625854
0.017759403227058476
-0.011906644066159357
0.022918715799792013
0.07322201338394399
0.05387459123619323
0.02936785651570893
0.06548304452484369
0.1209456546817292
0.09385926367487814
0.051294934949826454
0.10804737324989536
0.15448118640449718
0.1132066858226289
0.05903390380892676
0.09385926367487814
0.13642359239992982
0.08998977924532799
0.017759403227058476
0.02549837208615878
0.051294934949826454
0.007440778081591404
-0.04028286321619381
-0.005457503350242437
0.021628887656608628
-0.04415234764574396
-0.09832512965944609
-0.06349976979349473
-0.010616815922975973
-0.053181144648027645
-0.10735392666172978
-0.05834045722076118
-0.011906644066159357
-0.04931166021847749
-0.06865908236622825
-0.024804925497993197
-0.0028778470638756693
-0.04415234764574396
-0.07639805122532856
-0.031254066213910116
0.0009916373656744832
-0.06220994165031133
-0.09832512965944609
-0.03899303507301042
-0.001588018920692285
-0.05189131650484427
-0.09058616080034579
-0.04286251950256058
-0.001588018920692285
-0.04157269135937719
-0.07381839493896179
-0.031254066213910116
-0.011906644066159357
-0.053181144648027645
-0.07768787936851194
-0.011906644066159357
0.030657684658892317
-0.004167675207059053
-0.053181144648027645
-0.00932698777979259
0.01904923137024186
-0.029964238070726734
-0.06736925422304488
0.008730606224774787
0.022918715799792013
-0.031254066213910116
-0.05189131650484427
0.039686481661176005
0.035816997231625854
0.004861121795224636
-0.013196472209342742
0.0319475128020757
0.07064235709757723
0.008730606224774787
-0.04415234764574396
-0.011906644066159357
0.002281465508857867
-0.0725285667957784
-0.1060640985185464
-0.04673200393211073
-0.018355784782076275
-0.08413702008442886
-0.12541152066629715
-0.0725285667957784
-0.04286251950256058
-0.09832512965944609
-0.1357301458117642
-0.08284719194124548
-0.04157269135937719
-0.06736925422304488
-0.10348444223217963
-0.06349976979349473
-0.03512355064346027
-0.07768787936851194
-0.05447097279121103
0.1209456546817292
0.32989781387743744
0.42792475275937464
0.4614602844821426
0.4691992533412429
0.32989781387743744
0.06935252895439384
-0.11509289552083009
-0.14862842724359807
-0.11509289552083009
-0.155077567959515
-0.1628165368186153
-0.09058616080034579
-0.05189131650484427
-0.10477427037536301
-0.14604877095723132
-0.08413702008442886
-0.04286251950256058
-0.10735392666172978
-0.14604877095723132
-0.08542684822761225
-0.053181144648027645
-0.08413702008442886
-0.11509289552083009
-0.08026753565487871
-0.04286251950256058
-0.08413702008442886
-0.11896237995038024
-0.07381839493896179
-0.019645612925259664
-0.06736925422304488
-0.10090478594581286
-0.04286251950256058
0.00615094993840802
-0.04415234764574396
-0.0647895979366781
-0.0002981907775089009
0.04097630980435939
-0.005457503350242437
-0.023515097354809816
0.034527169088442465
0.07322201338394399
0.037106825374809235
0.015179746940691708
0.0719321852407606
0.11836599839536244
0.038396653517992624
0.030657684658892317
0.1041778888203452
0.13126427982719627
0.0641932163816603
0.021628887656608628
0.08998977924532799
0.10030840439079505
0.02936785651570893
-0.026094753641176582
0.007440778081591404
0.01646957508387509
-0.04415234764574396
-0.08671667637079564
-0.05447097279121103
-0.031254066213910116
-0.08542684822761225
-0.11509289552083009
-0.0725285667957784
-0.04544217578892734
-0.10090478594581286
-0.1370199739549476
-0.08800650451397901
-0.04673200393211073
-0.09832512965944609
-0.12025220809356361
-0.06220994165031133
-0.04544217578892734
-0.08542684822761225
-0.10090478594581286
-0.05447097279121103
-0.03512355064346027
-0.08413702008442886
-0.10348444223217963
-0.04157269135937719
-0.024804925497993197
-0.08026753565487871
-0.09574547337307932
-0.04286251950256058
-0.006747331493425821
-0.06349976979349473
-0.10219461408899624
-0.036413378786643656
0.026788200229342165
-0.027384581784359964
-0.0647895979366781
-0.013196472209342742
0.02807802837252555
-0.04415234764574396
-0.08026753565487871
-0.014486300352526125
0.008730606224774787
-0.036413378786643656
-0.059630285363944574
-0.011906644066159357
0.02936785651570893
-0.02867440992754335
-0.04286251950256058
0.017759403227058476
0.039686481661176005
-0.001588018920692285
-0.02867440992754335
0.039686481661176005
0.09256943553169475
0.01646957508387509
-0.00932698777979259
0.039686481661176005
0.05258476309300985
-0.001588018920692285
-0.02867440992754335
0.008730606224774787
0.01260009065432494
-0.05576080093439442
-0.08800650451397901
-0.023515097354809816
0.0009916373656744832
-0.06092011350712795
-0.07768787936851194
-0.04157269135937719
-0.010616815922975973
-0.059630285363944574
-0.0815573637980621
-0.018355784782076275
-0.0002981907775089009
-0.04673200393211073
-0.08026753565487871
-0.02222526921162643
0.026788200229342165
0.05258476309300985
0.18801671812726517
0.4098671587548072
0.5646465359368132
0.5362703167867789
0.39051973660705647
0.21510310913411623
0.05000510680664308
-0.10348444223217963
-0.1628165368186153
-0.09316581708671255
-0.04157269135937719
-0.08284719194124548
-0.1060640985185464
-0.04286251950256058
-0.020935441068443045
-0.08413702008442886
-0.10864375480491316
-0.04802183207529411
-0.008037159636609205
-0.06220994165031133
-0.08671667637079564
-0.019645612925259664
0.0009916373656744832
-0.06994891050941164
-0.0892963326571624
-0.02867440992754335
-0.010616815922975973
-0.06736925422304488
-0.07897770751169533
-0.018355784782076275
0.017759403227058476
-0.020935441068443045
-0.04802183207529411
0.01646957508387509
0.035816997231625854
-0.023515097354809816
-0.02867440992754335
0.05000510680664308
0.07838132595667753
0.026788200229342165
0.01646957508387509
0.07451184152712738
0.11191685767944551
0.07064235709757723
0.06935252895439384
0.13126427982719627
0.15448118640449718
0.1054677169635286
0.07580166967031077
0.11578634210899566
0.12352531096809596
0.06806270081121045
0.035816997231625854
0.07967115409986092
0.09256943553169475
0.008730606224774787
-0.036413378786643656
-0.0028778470638756693
0.007440778081591404
-0.050601488361660875
-0.08800650451397901
-0.04286251950256058
-0.015776128495709512
-0.07639805122532856
-0.09445564522989594
-0.036413378786643656
-0.006747331493425821
-0.07510822308214518
-0.10090478594581286
-0.04028286321619381
-0.011906644066159357
-0.06220994165031133
-0.08413702008442886
-0.004167675207059053
0.007440778081591404
-0.05189131650484427
-0.0725285667957784
-0.015776128495709512
0.011310262511141556
-0.023515097354809816
-0.06220994165031133
-0.0028778470638756693
0.026788200229342165
-0.032543894357093504
-0.050601488361660875
0.020339059513425243
0.035816997231625854
0.002281465508857867
-0.019645612925259664
0.035816997231625854
0.0641932163816603
-0.0002981907775089009
-0.033833722500276886
0.01260009065432494
0.02936785651570893
-0.018355784782076275
-0.020935441068443045
0.0319475128020757
0.039686481661176005
-0.019645612925259664
-0.04415234764574396
0.01646957508387509
0.0487152786634597
-0.020935441068443045
-0.04415234764574396
0.02549837208615878
0.038396653517992624
-0.026094753641176582
-0.04931166021847749
0.017759403227058476
0.04355596609072616
-0.011906644066159357
-0.024804925497993197
0.015179746940691708
0.03323734094525908
-0.014486300352526125
-0.031254066213910116
0.02807802837252555
0.05387459123619323
-0.011906644066159357
-0.024804925497993197
0.04613562237709293
0.07322201338394399
0.021628887656608628
0.010020434367958173
0.07967115409986092
0.09901857624761168
0.06032373195211015
0.05387459123619323
0.11062702953626212
0.10675754510671197
0.04097630980435939
0.015179746940691708
0.05258476309300985
0.06677287266802706
-0.0028778470638756693
-0.02867440992754335
0.022918715799792013
0.051294934949826454
-0.006747331493425821
-0.026094753641176582
0.022918715799792013
0.02936785651570893
-0.03512355064346027
-0.04415234764574396
0.020339059513425243
0.042266137947542776
-0.018355784782076275
-0.033833722500276886
0.017759403227058476
0.03323734094525908
-0.0028778470638756693
0.07838132595667753
0.2976521102978528
0.47435856591397646
0.533690660500412
0.5311110042140453
0.46661959705487616
0.2525081252864344
0.004861121795224636
-0.10864375480491316
-0.07381839493896179
-0.04415234764574396
-0.07897770751169533
-0.06736925422304488
-0.013196472209342742
-0.011906644066159357
-0.06220994165031133
-0.0647895979366781
-0.005457503350242437
0.004861121795224636
-0.0570506290775778
-0.07381839493896179
-0.010616815922975973
0.01260009065432494
-0.053181144648027645
-0.07123873865259503
0.010020434367958173
0.02549837208615878
-0.032543894357093504
-0.053181144648027645
0.008730606224774787
0.02549837208615878
-0.02867440992754335
-0.033833722500276886
0.02807802837252555
0.04742545052027631
-0.018355784782076275
-0.04157269135937719
0.022918715799792013
0.04355596609072616
-0.001588018920692285
0.008730606224774787
0.07967115409986092
0.1209456546817292
0.06548304452484369
0.05258476309300985
0.12610496725446274
0.14287273311584672
0.10030840439079505
0.09256943553169475
0.1454523894022135
0.15706084269086396
0.08998977924532799
0.06290338823847691
0.10933720139307875
0.11191685767944551
0.042266137947542776
0.008730606224774787
0.034527169088442465
0.03323734094525908
-0.031254066213910116
-0.059630285363944574
-0.014486300352526125
-0.011906644066159357
-0.07639805122532856
-0.07381839493896179
-0.013196472209342742
-0.010616815922975973
-0.07897770751169533
-0.0892963326571624
-0.018355784782076275
-0.0028778470638756693
-0.07381839493896179
-0.09058616080034579
-0.02222526921162643
0.011310262511141556
-0.04802183207529411
-0.06994891050941164
-0.0028778470638756693
0.007440778081591404
-0.06607942607986149
-0.07510822308214518
-0.0028778470638756693
0.008730606224774787
-0.04673200393211073
-0.04673200393211073
0.007440778081591404
-0.0002981907775089009
-0.06092011350712795
-0.06349976979349473
0.011310262511141556
0.022918715799792013
-0.04673200393211073
-0.05576080093439442
-0.004167675207059053
-0.02222526921162643
-0.06349976979349473
-0.06349976979349473
0.008730606224774787
-0.0002981907775089009
-0.06994891050941164
-0.0570506290775778
0.004861121795224636
-0.004167675207059053
-0.06994891050941164
-0.06220994165031133
0.008730606224774787
0.008730606224774787
-0.04931166021847749
-0.06220994165031133
-0.013196472209342742
-0.011906644066159357
-0.050601488361660875
-0.0647895979366781
-0.011906644066159357
-0.0028778470638756693
-0.08026753565487871
-0.08542684822761225
-0.014486300352526125
-0.011906644066159357
-0.06220994165031133
-0.07381839493896179
-0.011906644066159357
-0.001588018920692285
-0.059630285363944574
-0.08026753565487871
-0.023515097354809816
-0.005457503350242437
-0.053181144648027645
-0.06220994165031133
0.002281465508857867
0.01260009065432494
-0.053181144648027645
-0.0570506290775778
-0.013196472209342742
-0.011906644066159357
-0.059630285363944574
-0.05447097279121103
-0.0002981907775089009
0.002281465508857867
-0.06736925422304488
-0.06349976979349473
-0.004167675207059053
-0.005457503350242437
-0.06349976979349473
-0.0725285667957784
-0.008037159636609205
-0.0028778470638756693
-0.05576080093439442
-0.05447097279121103
0.004861121795224636
0.02807802837252555
-0.027384581784359964
-0.050601488361660875
0.020339059513425243
0.05000510680664308
-0.0028778470638756693
-0.001588018920692285
0.04097630980435939
0.02936785651570893
-0.04673200393211073
-0.04802183207529411
-0.020935441068443045
-0.04802183207529411
-0.06349976979349473
-0.08542684822761225
-0.032543894357093504
-0.033833722500276886
-0.07381839493896179
-0.09574547337307932
-0.014486300352526125
-0.024804925497993197
-0.08413702008442886
-0.08026753565487871
-0.013196472209342742
-0.03899303507301042
-0.08284719194124548
-0.06736925422304488
0.008730606224774787
0.051294934949826454
0.11836599839536244
0.362143517457022
0.5259516916413117
0.5749651610822805
0.44340269047757525
0.24734881271370082
0.13255410797037967
-0.001588018920692285
-0.1782944745368159
-0.1305708332390307
-0.04673200393211073
-0.027384581784359964
-0.07381839493896179
-0.08542684822761225
-0.023515097354809816
-0.011906644066159357
-0.08284719194124548
-0.07510822308214518
-0.011906644066159357
-0.013196472209342742
-0.059630285363944574
-0.06092011350712795
-0.010616815922975973
-0.015776128495709512
-0.06994891050941164
-0.04931166021847749
0.00615094993840802
0.0009916373656744832
-0.053181144648027645
-0.05189131650484427
0.015179746940691708
0.008730606224774787
-0.04544217578892734
-0.03899303507301042
0.02549837208615878
0.037106825374809235
-0.018355784782076275
0.0035712936520412514
0.07322201338394399
0.07451184152712738
0.0319475128020757
0.06032373195211015
0.13255410797037967
0.1377134205431132
0.08483046667259445
0.10288806067716182
0.16995912412269779
0.16350998340678088
0.1054677169635286
0.10933720139307875
0.17382860855224794
0.16737946783633104
0.09127960738851137
0.08354063852941107
0.11578634210899566
0.09127960738851137
0.020339059513425243
0.004861121795224636
0.04613562237709293
0.020339059513425243
-0.04673200393211073
-0.053181144648027645
-0.019645612925259664
-0.013196472209342742
-0.0647895979366781
-0.07639805122532856
-0.020935441068443045
-0.023515097354809816
-0.07510822308214518
-0.06220994165031133
-0.020935441068443045
-0.019645612925259664
-0.07381839493896179
-0.07381839493896179
-0.019645612925259664
-0.02222526921162643
-0.07510822308214518
-0.07381839493896179
-0.014486300352526125
-0.018355784782076275
-0.07510822308214518
-0.05447097279121103
-0.005457503350242437
-0.00932698777979259
